1529368883.00
64.000000
-0.00
-0.00
-0.00
-0.00
-0.00
-0.00
-0.00
-0.00
-0.00
-0.00
0.00
0.01
0.01
-0.00
-0.03
-0.05
-0.05
0.00
0.13
0.36
0.66
1.01
1.37
1.72
2.06
2.40
2.79
3.24
3.80
4.42
5.06
5.66
6.20
6.68
7.15
7.68
8.31
9.15
10.09
11.04
11.88
12.56
13.14
13.79
14.70
16.03
17.95
20.26
22.70
24.97
26.96
28.77
30.75
33.32
36.79
41.48
47.01
52.83
58.39
63.36
67.84
72.35
77.56
83.95
91.95
101.01
110.30
118.97
126.56
133.22
139.63
147.10
154.16
162.87
173.65
186.54
200.48
212.80
219.48
216.06
199.10
167.42
122.98
69.23
10.39
-50.08
-110.11
-168.88
-226.15
-281.68
-335.12
-385.72
-433.16
-476.96
-516.20
-549.28
-574.01
-588.10
-589.73
-578.23
-554.06
-519.20
-476.53
-429.31
-380.32
-330.90
-280.49
-226.92
-167.63
-101.25
-29.17
44.55
114.24
174.56
222.21
256.52
278.90
291.56
296.52
295.16
288.55
278.00
265.13
251.63
238.69
226.65
215.07
203.11
190.05
175.72
160.57
145.45
131.28
118.65
107.67
97.97
88.91
79.88
70.58
61.08
51.75
43.08
35.47
29.06
23.72
19.24
15.19
11.28
7.41
3.74
0.52
-1.98
-3.65
-4.57
-5.00
-5.30
-5.74
-6.48
-7.48
-8.60
-9.60
-10.34
-10.71
-10.72
-10.38
-9.70
-8.69
-7.44
-6.11
-4.96
-4.19
-3.89
-3.97
-4.23
-4.45
-4.50
-4.37
-4.14
-3.90
-3.68
-3.49
-3.33
-3.20
-3.15
-3.16
-3.23
-3.30
-3.36
-3.40
-3.43
-3.43
-3.42
-3.38
-3.33
-3.26
-3.16
-2.99
-2.68
-2.23
-1.68
-1.09
-0.52
-0.02
0.39
0.73
0.93
0.94
0.70
0.22
-0.42
-1.04
-1.42
-1.39
-0.93
-0.16
0.66
1.28
1.51
1.37
1.01
0.65
0.52
0.68
1.10
1.68
2.26
2.81
3.33
3.87
4.45
5.03
5.50
5.73
5.59
5.06
4.21
3.22
2.28
1.45
0.66
-0.21
-1.31
-2.60
-3.92
-5.02
-5.74
-6.05
-6.10
-6.09
-6.16
-6.31
-6.44
-6.37
-6.01
-5.38
-4.62
-3.90
-3.37
-3.08
-2.95
-2.87
-2.70
-2.40
-2.04
-1.80
-1.82
-2.10
-2.49
-2.75
-2.70
-2.36
-1.91
-1.60
-1.62
-1.95
-2.38
-2.66
-2.57
-2.08
-1.27
-0.32
0.55
1.17
1.37
1.08
0.29
-0.86
-2.11
-3.21
-3.94
-4.27
-4.30
-4.22
-4.18
-4.24
-4.33
-4.31
-4.09
-3.68
-3.17
-2.73
-2.47
-2.44
-2.59
-2.78
-2.89
-2.87
-2.76
-2.68
-2.68
-2.71
-2.60
-2.13
-1.14
0.34
2.08
3.73
4.93
5.44
5.23
4.44
3.38
2.43
1.90
2.00
2.80
4.12
5.69
7.13
8.13
8.52
8.34
7.79
7.06
6.25
5.28
3.91
1.87
-1.03
-4.70
-8.78
-12.62
-15.43
-16.45
-15.22
-11.81
-6.82
-1.27
3.71
7.29
9.06
9.10
7.69
5.10
1.49
-2.97
-7.91
-12.57
-15.90
-16.91
-15.02
-10.43
-4.06
2.72
8.58
12.57
14.38
14.26
12.78
10.62
8.32
6.23
4.57
3.50
3.10
3.36
4.15
5.22
6.25
6.98
7.27
7.17
6.80
6.30
5.75
5.12
4.31
3.21
1.72
-0.16
-2.33
-4.60
-6.75
-8.57
-9.90
-10.64
-10.69
-9.95
-8.29
-5.66
-2.21
1.67
5.34
8.17
9.71
9.91
9.12
7.88
6.71
5.84
5.23
4.67
3.91
2.88
1.60
0.16
-1.39
-3.06
-4.83
-6.60
-8.17
-9.24
-9.64
-9.37
-8.68
-7.96
-7.56
-7.65
-8.18
-8.89
-9.49
-9.76
-9.59
-8.99
-8.04
-6.85
-5.61
-4.50
-3.71
-3.31
-3.15
-2.92
-2.22
-0.82
1.22
3.52
5.47
6.54
6.43
5.15
2.99
0.32
-2.55
-5.43
-8.28
-11.19
-14.28
-17.71
-21.64
-26.17
-31.33
-36.93
-42.58
-47.66
-51.47
-53.39
-53.14
-50.82
-46.86
-41.74
-35.83
-29.25
-21.99
-14.10
-5.86
2.22
9.56
15.76
20.81
25.03
28.87
32.64
36.33
39.64
42.13
43.53
43.83
43.36
42.58
41.91
41.58
41.65
42.02
42.58
43.26
43.93
44.43
44.53
44.03
42.91
41.39
39.96
39.15
39.35
40.65
42.71
44.92
46.47
46.65
44.97
41.32
35.92
29.19
21.60
13.42
4.67
-4.82
-15.17
-26.22
-37.38
-47.70
-56.13
-61.89
-64.76
-65.15
-63.98
-62.31
-60.95
-60.28
-60.14
-60.00
-59.23
-57.25
-53.71
-48.46
-41.50
-32.96
-23.02
-12.05
-0.55
10.80
21.26
30.16
36.98
41.36
43.12
42.23
38.94
33.83
27.90
22.33
18.20
16.06
15.77
16.53
17.28
17.10
15.60
12.94
9.66
6.35
3.46
1.12
-0.75
-2.40
-4.11
-6.08
-8.42
-10.98
-13.39
-15.08
-15.52
-14.38
-11.73
-7.99
-3.78
0.31
3.90
6.91
9.35
11.26
12.54
13.00
12.52
11.15
9.13
6.81
4.53
2.44
0.56
-1.15
-2.65
-3.80
-4.43
-4.46
-3.98
-3.27
-2.70
-2.62
-3.15
-4.23
-5.61
-6.94
-7.89
-8.25
-7.96
-7.13
-5.98
-4.69
-3.37
-2.01
-0.47
1.36
3.54
6.01
8.56
10.95
12.89
14.18
14.70
14.46
13.62
12.41
11.09
9.83
8.65
7.51
6.30
4.96
3.48
1.88
0.18
-1.61
-3.43
-5.19
-6.72
-7.87
-8.51
-8.64
-8.38
-7.89
-7.36
-6.82
-6.20
-5.31
-3.96
-2.10
0.08
2.19
3.73
4.36
3.99
2.94
1.74
0.97
1.04
2.09
3.98
6.39
8.90
11.08
12.62
13.35
13.37
13.03
12.76
12.88
13.39
13.82
13.39
11.31
7.07
0.76
-6.98
-15.06
-22.33
-27.78
-30.84
-31.45
-30.04
-27.49
-24.80
-22.90
-22.36
-23.35
-25.64
-28.79
-32.29
-35.70
-38.67
-40.96
-42.42
-42.97
-42.71
-41.79
-40.43
-38.77
-36.81
-34.36
-31.15
-26.92
-21.54
-15.10
-7.92
-0.44
6.92
13.93
20.56
26.96
33.23
39.31
44.87
49.40
52.40
53.56
52.85
50.53
47.03
42.80
38.25
33.68
29.38
25.63
22.69
20.73
19.72
19.43
19.46
19.39
18.93
17.86
15.97
12.98
8.62
2.79
-4.10
-11.19
-17.36
-21.68
-23.68
-23.46
-21.43
-18.00
-13.50
-8.45
-4.01
-2.16
-5.35
-15.61
-33.39
-57.01
-82.79
-106.05
-122.41
-128.85
-124.17
-108.87
-84.76
-54.53
-21.45
10.96
39.36
61.22
75.34
82.10
83.19
80.93
77.50
74.30
71.78
69.56
66.85
62.86
57.17
49.84
41.41
32.75
24.84
18.50
14.22
12.03
11.54
12.05
12.74
12.92
12.25
10.80
8.98
7.39
6.49
6.44
7.02
7.74
8.05
7.54
6.08
3.81
1.10
-1.54
-3.67
-4.93
-5.13
-4.22
-2.26
0.56
3.95
7.47
10.57
12.69
13.41
12.63
10.58
7.83
5.10
2.95
1.66
1.13
0.99
0.78
0.21
-0.74
-1.83
-2.67
-2.93
-2.45
-1.34
0.08
1.37
2.18
2.34
1.96
1.46
1.29
1.85
3.17
4.94
6.56
7.46
7.39
6.64
5.90
6.11
7.96
11.61
16.50
21.30
24.10
22.67
15.01
0.03
-21.73
-47.70
-73.64
-94.63
-106.62
-107.72
-98.72
-82.60
-63.33
-44.54
-28.69
-16.85
-9.02
-4.54
-2.38
-1.25
0.18
3.02
7.73
13.99
20.71
26.51
30.24
31.36
30.04
26.97
23.09
19.33
16.40
14.72
14.36
15.05
16.30
17.56
18.45
18.82
18.83
18.74
18.82
19.16
19.68
20.20
20.53
20.52
20.04
18.91
16.96
14.05
10.16
5.43
0.19
-5.16
-10.19
-14.53
-17.90
-20.15
-21.24
-21.23
-20.24
-18.40
-15.79
-12.40
-8.24
-3.35
2.08
7.73
13.14
17.79
21.27
23.36
24.09
23.77
22.90
22.12
22.10
23.43
26.48
31.23
37.12
42.95
47.07
47.78
43.88
35.15
22.54
7.88
-6.64
-19.19
-28.71
-34.98
-38.44
-39.80
-39.69
-38.60
-36.83
-34.65
-32.32
-30.06
-28.00
-26.11
-24.26
-22.36
-20.47
-18.93
-18.20
-18.65
-20.25
-22.44
-24.26
-24.87
-24.01
-22.25
-20.86
-21.16
-23.91
-28.87
-34.96
-40.73
-44.92
-46.82
-46.19
-43.03
-37.37
-29.29
-19.14
-7.73
3.62
13.45
20.53
24.25
24.72
22.67
19.17
15.26
11.80
9.35
8.15
8.18
9.23
10.90
12.74
14.26
15.06
14.89
13.70
11.69
9.22
6.73
4.63
3.23
2.71
3.09
4.24
5.86
7.55
8.79
9.12
8.23
6.10
2.95
-0.77
-4.56
-7.96
-10.60
-12.27
-12.85
-12.36
-10.92
-8.79
-6.30
-3.81
-1.64
0.05
1.21
1.92
2.33
2.59
2.76
2.88
2.88
2.73
2.42
1.97
1.46
0.98
0.62
0.44
0.51
0.85
1.43
2.18
2.94
3.54
3.85
3.82
3.54
3.14
2.77
2.46
2.20
1.91
1.56
1.16
0.80
0.51
0.29
0.08
-0.22
-0.68
-1.28
-1.93
-2.52
-2.98
-3.26
-3.40
-3.50
-3.62
-3.82
-4.05
-4.17
-4.06
-3.63
-2.94
-2.13
-1.40
-0.91
-0.72
-0.75
-0.85
-0.89
-0.81
-0.60
-0.27
0.18
0.77
1.47
2.18
2.71
2.85
2.43
1.36
-0.36
-2.69
-5.62
-9.13
-13.14
-17.39
-21.35
-24.30
-25.52
-24.48
-21.11
-15.75
-9.05
-1.76
5.45
12.11
17.86
22.44
25.63
27.30
27.46
26.36
24.42
22.15
19.94
17.96
16.13
14.17
11.77
8.63
4.60
-0.29
-5.76
-11.19
-15.73
-18.43
-18.65
-16.30
-12.02
-7.00
-2.54
0.40
1.53
1.10
-0.29
-2.08
-3.97
-5.87
-7.75
-9.48
-10.83
-11.55
-11.46
-10.54
-8.92
-6.82
-4.45
-2.02
0.36
2.61
4.70
6.62
8.33
9.72
10.66
11.08
11.02
10.66
10.21
9.88
9.76
9.85
10.09
10.44
10.89
11.38
11.82
12.03
11.90
11.39
10.62
9.74
8.88
8.09
7.32
6.46
5.41
4.10
2.50
0.69
-1.22
-2.99
-4.37
-5.27
-5.81
-6.40
-7.56
-9.62
-12.54
-15.81
-18.66
-20.35
-20.47
-19.11
-16.76
-14.20
-12.24
-11.62
-12.74
-15.57
-19.57
-23.84
-27.27
-29.00
-28.55
-25.92
-21.46
-15.60
-8.81
-1.66
5.12
10.59
13.76
13.93
10.87
4.89
-3.36
-13.10
-23.39
-33.10
-40.88
-45.42
-45.94
-42.63
-36.71
-29.93
-23.81
-18.99
-15.09
-11.17
-6.45
-0.85
5.06
10.42
14.69
17.97
20.80
23.73
26.91
29.95
32.15
32.88
31.97
29.81
27.13
24.65
22.74
21.37
20.21
18.98
17.61
16.27
15.21
14.59
14.29
14.00
13.39
12.32
10.89
9.40
8.20
7.54
7.47
7.88
8.55
9.25
9.80
10.09
10.15
10.03
9.79
9.45
9.00
8.38
7.62
6.85
6.29
6.17
6.60
7.51
8.67
9.80
10.73
11.44
12.07
12.78
13.67
14.68
15.63
16.26
16.34
15.72
14.38
12.39
9.87
7.00
4.04
1.35
-0.61
-1.44
-1.01
0.33
1.83
2.71
2.60
1.78
1.06
1.24
2.55
4.38
5.44
4.37
0.40
-6.25
-14.52
-22.90
-29.99
-34.87
-37.16
-36.90
-34.40
-30.12
-24.64
-18.68
-12.94
-7.98
-4.10
-1.18
1.22
3.72
6.84
10.73
15.04
18.98
21.62
22.23
20.60
17.20
13.05
9.36
7.15
6.89
8.44
11.17
14.25
16.84
18.26
18.00
15.75
11.40
5.15
-2.48
-10.72
-18.74
-25.83
-31.58
-35.91
-39.00
-41.08
-42.38
-43.00
-42.92
-42.07
-40.44
-38.05
-35.02
-31.48
-27.48
-22.95
-17.71
-11.62
-4.70
2.75
10.10
16.46
20.89
22.57
20.96
15.95
7.90
-2.34
-13.57
-24.49
-33.91
-41.06
-45.63
-47.71
-47.57
-45.47
-41.59
-36.00
-28.81
-20.25
-10.77
-0.99
8.35
16.49
22.80
26.83
28.35
27.39
24.20
19.12
12.57
4.96
-3.26
-11.60
-19.49
-26.30
-31.40
-34.28
-34.71
-32.73
-28.68
-23.08
-16.48
-9.33
-1.99
5.28
12.19
18.41
23.65
27.74
30.66
32.59
33.79
34.53
35.02
35.34
35.49
35.35
34.71
33.39
31.19
28.05
24.01
19.19
13.83
8.12
2.31
-3.40
-8.73
-13.33
-16.80
-18.83
-19.23
-18.09
-15.73
-12.66
-9.39
-6.30
-3.58
-1.31
0.46
1.52
1.64
0.64
-1.42
-4.11
-6.73
-8.52
-8.92
-7.82
-5.51
-2.60
0.28
2.71
4.55
5.90
6.92
7.64
7.95
7.58
6.39
4.41
1.93
-0.55
-2.55
-3.71
-3.89
-3.14
-1.63
0.48
3.02
5.87
8.87
11.84
14.58
16.88
18.58
19.61
20.02
19.90
19.42
18.75
18.01
17.30
16.65
16.03
15.35
14.53
13.50
12.25
10.81
9.25
7.61
5.96
4.35
2.89
1.70
0.91
0.56
0.63
1.00
1.53
2.07
2.49
2.73
2.77
2.63
2.38
2.12
1.92
1.82
1.76
1.66
1.42
1.01
0.48
-0.06
-0.45
-0.56
-0.27
0.42
1.41
2.48
3.36
3.77
3.53
2.59
1.01
-1.03
-3.33
-5.63
-7.71
-9.37
-10.52
-11.18
-11.46
-11.49
-11.40
-11.23
-10.97
-10.59
-10.06
-9.40
-8.60
-7.67
-6.61
-5.48
-4.34
-3.30
-2.48
-1.91
-1.55
-1.30
-1.03
-0.65
-0.14
0.48
1.15
1.80
2.35
2.77
3.02
3.10
3.02
2.82
2.57
2.33
2.17
2.10
2.14
2.27
2.45
2.64
2.80
2.87
2.79
2.49
1.90
0.98
-0.22
-1.59
-2.95
-4.07
-4.78
-5.03
-4.96
-4.78
-4.72
-4.92
-5.39
-6.06
-6.85
-7.67
-8.49
-9.35
-10.40
-11.96
-14.64
-19.11
-25.81
-34.46
-43.87
-52.13
-57.26
-57.96
-54.11
-46.69
-37.30
-27.43
-18.11
-9.78
-2.53
3.58
8.46
12.07
14.49
15.91
16.73
17.21
17.69
18.49
19.99
22.47
26.03
30.44
35.11
39.12
41.47
41.43
38.86
34.53
30.05
27.53
29.02
35.68
47.26
61.89
76.57
88.09
94.07
93.72
87.93
78.78
68.68
59.49
52.13
46.59
42.41
38.93
35.82
32.71
29.18
24.62
18.45
10.40
0.83
-9.30
-18.70
-26.17
-31.13
-33.81
-35.22
-36.85
-40.04
-45.46
-52.76
-60.66
-67.45
-71.75
-73.03
-71.68
-68.55
-64.29
-58.81
-51.46
-41.54
-29.14
-15.51
-2.81
6.78
11.95
12.81
10.74
7.71
5.35
4.37
4.48
4.65
3.71
0.74
-4.67
-12.38
-21.78
-32.08
-42.47
-52.38
-61.59
-70.16
-78.31
-86.20
-93.73
-100.43
-105.39
-107.37
-105.06
-97.50
-84.51
-66.92
-46.57
-25.83
-6.92
8.65
20.45
28.91
34.92
39.29
42.57
44.97
46.63
47.70
48.35
48.69
48.61
47.83
46.09
43.36
39.91
36.33
33.27
31.22
30.36
30.51
31.26
32.17
32.87
33.18
33.10
32.75
32.27
31.77
31.23
30.53
29.49
27.96
25.86
23.19
20.02
16.45
12.57
8.54
4.61
1.08
-1.71
-3.51
-4.21
-3.83
-2.53
-0.45
2.26
5.51
9.30
13.61
18.44
23.71
29.25
34.77
39.91
44.31
47.72
50.03
51.28
51.60
51.16
50.09
48.41
46.09
42.94
38.76
33.34
26.64
18.78
10.15
1.28
-7.26
-15.06
-21.92
-27.92
-33.25
-38.17
-42.85
-47.33
-51.59
-55.48
-58.84
-61.47
-63.22
-64.09
-64.25
-64.00
-63.69
-63.55
-63.68
-64.07
-64.74
-65.73
-66.90
-67.79
-67.35
-64.15
-56.89
-45.04
-29.29
-11.55
5.71
20.20
30.56
36.52
38.67
37.99
35.38
31.61
27.31
23.10
19.52
16.79
14.76
12.93
10.76
8.00
4.98
2.45
1.34
2.33
5.56
10.63
16.68
22.66
27.56
30.68
31.75
31.03
29.27
27.48
26.58
27.04
28.73
31.00
32.91
33.63
32.67
30.06
26.14
21.38
16.05
10.07
3.02
-5.69
-16.48
-29.29
-43.40
-57.33
-69.14
-76.88
-79.22
-76.01
-68.45
-58.84
-49.85
-43.65
-41.23
-42.18
-45.05
-47.98
-49.48
-48.92
-46.71
-44.15
-42.90
-44.31
-48.79
-55.51
-62.52
-67.41
-68.28
-64.40
-56.45
-46.05
-34.94
-24.30
-14.49
-5.29
3.56
12.07
19.93
26.78
32.57
37.59
42.31
47.05
51.71
55.81
58.67
59.85
59.34
57.62
55.44
53.48
52.11
51.32
50.74
49.93
48.57
46.55
44.03
41.31
38.73
36.49
34.59
32.84
30.92
28.58
25.79
22.78
19.94
17.67
16.17
15.30
14.73
14.07
13.15
12.09
11.22
10.89
11.27
12.27
13.62
15.01
16.22
17.17
17.85
18.26
18.38
18.18
17.75
17.29
17.09
17.33
18.02
18.96
19.82
20.34
20.42
20.16
19.78
19.45
19.19
18.93
18.52
17.92
17.13
16.23
15.26
14.16
12.77
10.96
8.72
6.21
3.75
1.64
0.05
-1.16
-2.38
-4.10
-6.73
-10.42
-15.11
-20.65
-27.00
-34.27
-42.56
-51.78
-61.52
-71.13
-79.98
-87.65
-93.91
-98.52
-100.99
-100.45
-95.94
-86.89
-73.52
-56.97
-39.00
-21.46
-5.71
7.56
18.37
27.07
34.06
39.57
43.66
46.30
47.56
47.61
46.79
45.50
44.04
42.57
41.04
39.35
37.35
35.03
32.51
29.97
27.61
25.51
23.67
22.02
20.47
19.02
17.68
16.48
15.41
14.44
13.50
12.52
11.50
10.43
9.34
8.27
7.25
6.27
5.33
4.39
3.41
2.37
1.29
0.16
-0.98
-2.16
-3.38
-4.65
-5.90
-7.04
-7.89
-8.28
-8.05
-7.12
-5.49
-3.26
-0.65
2.13
4.83
7.35
9.64
11.70
13.55
15.12
16.31
17.06
17.39
17.48
17.57
17.92
18.66
19.77
21.06
22.25
23.15
23.61
23.65
23.39
22.93
22.35
21.56
20.37
18.45
15.39
10.76
4.13
-4.81
-16.10
-29.38
-43.83
-58.26
-71.41
-82.25
-90.11
-94.69
-95.78
-93.20
-86.80
-76.67
-63.43
-48.21
-32.51
-17.81
-5.24
4.56
11.38
15.33
16.77
16.30
14.74
13.05
12.00
11.98
12.90
14.31
15.73
16.80
17.42
17.65
17.50
16.94
15.86
14.24
12.28
10.30
8.71
7.73
7.28
7.06
6.67
5.85
4.59
3.16
1.89
1.07
0.80
0.95
1.36
1.84
2.27
2.63
2.86
2.92
2.80
2.49
2.08
1.70
1.46
1.40
1.49
1.69
1.97
2.35
2.88
3.54
4.23
4.74
4.91
4.67
4.11
3.43
2.85
2.49
2.32
2.21
2.04
1.70
1.19
0.50
-0.39
-1.52
-2.94
-4.61
-6.37
-8.01
-9.29
-10.10
-10.42
-10.41
-10.27
-10.17
-10.13
-10.04
-9.73
-9.04
-7.92
-6.44
-4.75
-3.01
-1.32
0.29
1.85
3.37
4.86
6.25
7.42
8.25
8.67
8.71
8.53
8.34
8.28
8.34
8.29
7.82
6.73
5.11
3.33
2.01
1.74
2.89
5.49
9.14
13.11
16.43
18.07
17.15
13.13
6.11
-3.19
-13.42
-22.99
-30.47
-34.94
-36.20
-34.68
-31.23
-26.75
-21.98
-17.43
-13.42
-10.24
-8.18
-7.41
-7.80
-8.70
-9.08
-7.86
-4.38
1.21
8.03
14.78
20.30
23.96
25.73
25.96
24.95
22.82
19.56
15.36
10.85
7.07
5.17
5.88
9.19
14.28
19.79
24.23
26.44
25.92
23.03
18.89
15.00
12.76
12.93
15.29
18.72
21.57
22.37
20.33
15.63
9.21
2.31
-3.89
-8.61
-11.54
-12.88
-13.23
-13.46
-14.39
-16.35
-18.92
-21.04
-21.35
-18.87
-13.39
-5.63
3.10
11.26
17.45
20.69
20.59
17.39
12.09
6.20
1.33
-1.41
-1.73
-0.20
2.22
4.69
6.82
8.65
10.30
11.78
12.98
13.89
14.76
16.05
18.22
21.39
25.18
28.75
31.03
30.97
27.75
21.07
11.13
-1.27
-14.99
-28.86
-42.00
-54.04
-65.01
-75.18
-84.73
-93.68
-101.92
-109.36
-115.90
-121.34
-125.18
-126.46
-123.92
-116.41
-103.41
-85.47
-64.28
-42.21
-21.58
-3.91
10.45
22.10
31.95
40.60
47.98
53.49
56.55
57.04
55.46
52.61
49.21
45.54
41.50
36.95
32.07
27.47
24.01
22.27
22.34
23.77
25.84
27.93
29.76
31.41
33.07
34.80
36.43
37.56
37.88
37.26
35.93
34.23
32.41
30.45
28.08
24.92
20.81
15.97
10.84
5.97
1.71
-1.80
-4.52
-6.24
-6.52
-4.83
-1.04
4.20
9.45
12.93
13.22
10.03
4.42
-1.46
-5.16
-4.75
0.60
10.44
23.34
37.31
50.26
60.38
66.35
67.65
64.67
58.64
51.19
43.77
37.00
30.57
23.54
15.01
4.75
-6.61
-17.91
-28.05
-36.51
-43.44
-49.25
-54.07
-57.38
-58.16
-55.33
-48.36
-37.51
-23.87
-9.09
4.93
16.29
23.40
25.35
22.19
15.15
6.29
-2.08
-8.32
-11.93
-13.59
-14.51
-15.63
-17.15
-18.45
-18.54
-16.52
-11.82
-4.27
5.95
18.25
31.47
43.82
52.98
56.63
53.18
42.40
25.72
5.84
-13.92
-30.56
-42.03
-47.54
-47.42
-42.83
-35.35
-26.68
-18.42
-11.88
-7.85
-6.48
-7.10
-8.38
-8.68
-6.60
-1.45
6.42
15.66
24.29
30.27
32.06
29.00
21.40
10.39
-2.43
-15.29
-26.66
-35.37
-40.75
-42.65
-41.40
-37.77
-32.79
-27.57
-23.01
-19.62
-17.36
-15.61
-13.41
-9.74
-3.87
4.32
14.15
24.18
32.45
36.87
35.95
29.37
18.29
4.98
-7.92
-18.44
-25.80
-30.33
-32.89
-34.12
-34.12
-32.65
-29.71
-25.88
-22.31
-20.20
-20.06
-21.31
-22.37
-21.28
-16.49
-7.52
4.78
18.38
30.47
38.32
40.08
35.45
25.76
13.39
0.90
-9.85
-18.09
-23.97
-28.02
-30.66
-32.05
-32.26
-31.50
-30.20
-28.68
-26.87
-24.10
-19.49
-12.37
-2.84
8.22
19.36
28.98
35.58
38.00
35.60
28.40
17.26
3.87
-9.56
-20.92
-28.75
-32.60
-32.95
-30.67
-26.64
-21.46
-15.64
-9.83
-4.94
-1.85
-0.98
-1.91
-3.42
-3.94
-2.28
1.78
7.34
12.68
15.96
15.85
11.88
4.46
-5.33
-16.10
-26.45
-35.26
-41.84
-45.94
-47.59
-46.91
-43.98
-38.95
-32.24
-24.63
-17.17
-10.84
-6.09
-2.74
-0.09
2.68
6.01
9.84
13.69
17.04
19.53
21.09
21.77
21.66
20.86
19.56
18.14
17.21
17.42
19.21
22.63
27.24
32.23
36.72
39.92
41.36
40.95
38.91
35.62
31.48
26.78
21.65
16.19
10.60
5.21
0.42
-3.55
-6.89
-10.13
-13.94
-18.70
-24.20
-29.68
-34.12
-36.64
-36.77
-34.41
-29.66
-22.75
-14.05
-4.26
5.51
13.92
19.79
22.46
21.98
18.88
13.87
7.54
0.34
-7.32
-14.86
-21.54
-26.60
-29.55
-30.25
-29.04
-26.56
-23.76
-21.65
-21.14
-22.76
-26.39
-31.14
-35.60
-38.28
-38.20
-35.27
-30.20
-24.15
-18.17
-12.85
-8.27
-4.29
-0.89
1.76
3.40
3.99
3.92
3.92
4.83
7.15
10.79
15.14
19.34
22.68
24.94
26.35
27.43
28.62
30.10
31.71
33.08
33.82
33.61
32.28
29.79
26.25
22.02
17.68
13.97
11.51
10.51
10.63
11.12
11.14
10.19
8.35
6.23
4.59
3.91
4.07
4.40
4.04
2.39
-0.44
-3.62
-5.96
-6.43
-4.65
-1.02
3.54
8.02
11.59
13.43
12.68
8.72
1.82
-6.25
-12.36
-13.25
-7.23
4.60
18.48
29.64
34.53
32.37
25.19
16.42
9.00
4.16
1.44
-0.32
-1.86
-3.05
-3.16
-1.56
1.73
5.98
10.01
12.76
13.79
13.51
12.93
13.18
14.95
18.16
21.92
25.07
26.67
26.38
24.60
22.19
20.09
18.99
19.13
20.30
21.97
23.48
24.19
23.68
21.77
18.59
14.44
9.71
4.77
-0.13
-4.84
-9.24
-13.19
-16.57
-19.31
-21.48
-23.28
-25.01
-27.00
-29.42
-32.32
-35.60
-39.03
-42.33
-45.18
-47.31
-48.49
-48.66
-47.91
-46.47
-44.64
-42.75
-41.04
-39.62
-38.51
-37.63
-36.85
-36.05
-35.16
-34.18
-33.17
-32.17
-31.15
-30.03
-28.69
-27.02
-25.00
-22.64
-19.96
-16.92
-13.50
-9.71
-5.76
-1.98
1.26
3.70
5.35
6.41
7.18
7.91
8.65
9.38
10.08
10.85
11.85
13.27
15.07
16.96
18.43
18.96
18.22
16.17
13.04
9.20
5.04
0.92
-2.80
-5.67
-7.13
-6.66
-3.99
0.67
6.61
12.73
17.95
21.54
23.40
23.97
24.03
24.27
25.09
26.38
27.65
28.31
28.02
26.93
25.55
24.48
24.03
24.09
24.29
24.44
24.82
26.19
29.40
34.68
41.34
47.95
53.03
55.65
55.69
53.60
49.91
44.88
38.26
29.54
18.46
5.47
-8.30
-21.45
-32.50
-40.18
-43.21
-40.86
-33.20
-21.03
-5.64
11.20
27.23
40.16
48.10
50.64
48.41
42.84
35.90
30.00
27.17
28.28
32.93
39.54
46.72
52.99
56.93
57.50
54.54
48.12
37.95
23.47
1.78
-25.71
-53.53
-75.36
-90.08
-99.75
-106.53
-112.03
-114.61
-112.84
-104.81
-89.81
-69.10
-45.64
-22.53
-2.23
13.88
25.81
34.18
40.15
43.84
43.87
38.01
24.71
3.86
-23.08
-53.31
-83.70
-111.11
-133.53
-150.26
-161.29
-166.19
-163.90
-153.16
-133.42
-106.01
-74.34
-43.42
-18.24
-1.78
6.35
9.39
11.58
16.10
23.65
32.93
41.85
49.05
54.60
59.55
64.82
70.28
74.69
76.50
74.96
70.53
64.63
58.86
54.19
50.74
47.96
45.12
41.71
37.63
33.15
28.62
24.31
20.37
16.76
13.45
10.41
7.72
5.45
3.64
2.18
0.91
-0.34
-1.63
-2.85
-3.73
-4.01
-3.56
-2.43
-0.89
0.67
1.89
2.52
2.49
1.94
1.15
0.51
0.36
1.01
2.60
5.11
8.25
11.47
13.95
14.79
13.34
9.48
3.88
-2.15
-7.15
-10.05
-10.58
-9.29
-7.14
-4.93
-2.97
-1.02
1.32
4.22
7.45
10.49
12.77
13.97
14.09
13.37
12.06
10.39
8.46
6.34
4.10
1.86
-0.24
-2.04
-3.46
-4.55
-5.52
-6.69
-8.31
-10.36
-12.24
-12.77
-10.46
-4.03
6.88
21.30
37.04
51.25
61.44
66.23
65.72
61.26
54.84
48.36
43.26
40.38
40.12
42.59
47.60
54.56
62.32
69.46
74.62
76.93
76.06
71.85
63.92
51.49
33.93
11.56
-13.62
-38.13
-58.06
-70.56
-75.13
-73.60
-69.24
-65.12
-62.97
-62.80
-63.60
-64.29
-64.42
-64.19
-64.02
-64.01
-63.69
-62.22
-58.92
-53.64
-46.98
-40.02
-33.86
-29.19
-26.00
-23.75
-21.65
-19.10
-15.96
-12.53
-9.39
-7.08
-5.82
-5.49
-5.65
-5.80
-5.58
-4.90
-3.93
-2.96
-2.24
-1.85
-1.67
-1.46
-0.99
-0.17
0.95
2.15
3.20
3.94
4.40
4.77
5.33
6.30
7.76
9.56
11.48
13.28
14.92
16.56
18.43
20.73
23.44
26.41
29.46
32.53
35.68
38.86
41.63
43.05
41.98
37.58
29.83
19.69
8.59
-2.24
-12.26
-21.70
-30.90
-39.73
-47.34
-52.66
-55.15
-55.44
-55.16
-55.91
-58.18
-60.84
-61.70
-58.82
-51.65
-41.45
-30.59
-21.33
-14.74
-10.41
-6.94
-2.87
2.59
9.36
16.82
24.26
31.32
37.89
43.80
48.59
51.45
51.60
48.82
43.75
37.78
32.58
29.32
28.13
28.15
27.98
26.41
22.87
17.50
10.77
3.19
-4.86
-13.01
-20.61
-26.69
-30.12
-30.04
-26.21
-19.15
-10.01
-0.25
8.73
15.82
20.29
21.79
20.32
16.19
10.12
3.12
-3.64
-9.11
-12.64
-14.09
-13.79
-12.31
-10.30
-8.27
-6.63
-5.62
-5.36
-5.82
-6.75
-7.76
-8.38
-8.16
-6.85
-4.41
-1.01
3.08
7.49
11.82
15.67
18.65
20.48
21.08
20.54
19.14
17.21
15.03
12.79
10.60
8.54
6.74
5.41
4.71
4.73
5.37
6.39
7.45
8.26
8.65
8.57
8.05
7.16
5.97
4.53
2.91
1.19
-0.52
-2.11
-3.49
-4.66
-5.68
-6.64
-7.61
-8.66
-9.75
-10.81
-11.73
-12.41
-12.74
-12.66
-12.13
-11.21
-10.11
-9.19
-8.88
-9.51
-11.16
-13.57
-16.24
-18.64
-20.39
-21.39
-21.76
-21.67
-21.29
-20.68
-19.90
-19.06
-18.32
-17.74
-17.22
-16.44
-15.05
-12.93
-10.34
-7.92
-6.36
-6.03
-6.66
-7.39
-7.08
-4.91
-0.72
4.87
10.83
16.08
19.95
22.24
23.04
22.59
21.07
18.71
15.84
12.91
10.40
8.65
7.66
7.23
7.00
6.75
6.44
6.22
6.27
6.71
7.45
8.27
8.78
8.65
7.62
5.70
3.14
0.39
-2.08
-3.93
-5.06
-5.54
-5.56
-5.25
-4.66
-3.83
-2.80
-1.71
-0.75
-0.03
0.42
0.68
0.88
1.14
1.56
2.19
3.02
3.96
4.84
5.42
5.51
5.04
4.14
3.05
2.04
1.32
0.94
0.89
1.12
1.61
2.32
3.11
3.80
4.18
4.10
3.55
2.67
1.63
0.63
-0.19
-0.77
-1.08
-1.14
-1.01
-0.74
-0.41
-0.06
0.27
0.54
0.70
0.70
0.52
0.19
-0.14
-0.28
-0.07
0.59
1.67
3.02
4.45
5.77
6.82
7.50
7.74
7.53
6.91
5.95
4.77
3.49
2.20
0.94
-0.26
-1.39
-2.46
-3.44
-4.35
-5.15
-5.80
-6.23
-6.37
-6.17
-5.70
-5.06
-4.41
-3.92
-3.66
-3.62
-3.70
-3.77
-3.75
-3.60
-3.36
-3.04
-2.64
-2.15
-1.60
-1.02
-0.47
-0.01
0.25
0.26
0.00
-0.43
-0.91
-1.25
-1.30
-0.94
-0.22
0.66
1.49
2.12
2.58
3.02
3.66
4.69
6.19
7.84
9.09
9.57
9.33
8.87
8.83
9.70
11.57
14.24
16.79
18.17
17.93
16.51
15.05
14.79
16.41
19.88
24.56
28.82
30.84
29.90
26.81
23.53
22.13
23.74
28.16
34.22
39.26
40.26
35.22
23.27
4.42
-21.12
-53.14
-91.15
-127.39
-151.54
-156.59
-144.06
-122.44
-100.29
-81.54
-65.26
-47.63
-24.72
3.92
32.50
56.76
72.21
75.60
66.62
47.76
22.94
-4.34
-33.26
-65.40
-102.60
-140.82
-174.36
-196.57
-202.54
-191.10
-165.01
-129.53
-89.59
-47.23
-2.07
46.32
96.80
145.67
187.79
218.93
237.22
243.50
240.50
231.03
216.66
198.17
175.96
150.31
121.83
91.46
60.56
31.11
5.20
-15.69
-30.99
-41.42
-48.69
-54.92
-61.77
-69.83
-78.34
-85.58
-89.60
-88.81
-82.74
-72.30
-59.55
-47.04
-36.97
-30.54
-27.95
-28.68
-31.87
-36.60
-41.77
-45.98
-47.62
-45.36
-38.59
-28.09
-15.81
-4.38
3.93
8.28
9.61
9.98
11.35
14.53
18.74
22.31
23.90
23.37
21.99
21.49
22.85
25.55
27.78
27.49
23.54
16.39
7.87
0.41
-3.89
-3.81
0.65
8.39
17.34
25.01
29.04
27.81
21.03
9.81
-3.58
-16.33
-26.06
-31.51
-32.84
-31.39
-28.90
-26.62
-24.74
-22.51
-18.95
-13.81
-7.88
-2.62
0.74
2.14
2.87
4.79
9.10
15.49
22.20
26.97
28.39
26.68
23.39
20.57
19.64
20.73
22.83
24.31
23.64
19.97
13.35
4.77
-4.11
-11.49
-16.02
-17.41
-16.57
-15.26
-15.31
-17.58
-21.62
-25.88
-28.43
-27.85
-23.84
-17.28
-9.86
-3.37
0.91
2.65
2.50
1.66
1.41
2.56
5.29
9.17
13.56
17.85
21.67
24.79
26.87
27.36
25.56
20.90
13.26
3.20
-8.13
-19.26
-28.82
-35.78
-39.56
-39.97
-37.22
-31.86
-24.75
-17.04
-9.82
-3.78
1.02
5.03
8.76
12.39
15.74
18.36
20.01
20.80
21.22
21.63
21.88
21.28
18.97
14.43
7.85
-0.02
-8.17
-15.53
-21.27
-24.62
-24.93
-21.84
-15.39
-6.33
3.66
12.25
17.37
18.16
15.50
11.77
9.72
11.40
16.93
23.92
28.45
27.15
19.11
6.43
-6.81
-17.08
-22.40
-23.47
-23.55
-26.71
-35.38
-49.09
-64.58
-77.27
-83.29
-78.99
-62.50
-35.47
-3.46
25.20
41.54
38.61
13.88
-30.10
-83.73
-133.57
-167.59
-178.79
-166.12
-133.50
-87.47
-29.71
28.77
75.39
104.77
119.30
123.64
121.27
114.40
105.23
96.09
88.05
82.57
80.51
81.24
83.16
84.82
85.36
84.20
80.51
72.54
59.94
44.73
27.20
7.86
-12.34
-31.75
-47.97
-58.30
-61.10
-55.56
-42.76
-26.26
-10.78
-0.36
3.19
0.69
-5.19
-11.71
-16.61
-18.81
-18.52
-16.52
-13.35
-9.56
-5.62
-2.02
0.59
1.71
1.06
-1.30
-4.80
-8.56
-11.74
-13.77
-14.55
-14.42
-13.92
-13.44
-13.12
-12.75
-12.09
-11.06
-9.79
-8.52
-7.48
-6.71
-6.08
-5.37
-4.39
-3.09
-1.65
-0.35
0.57
0.96
0.83
0.32
-0.29
-0.75
-0.85
-0.56
0.03
0.76
1.47
2.06
2.51
2.79
2.91
2.87
2.74
2.65
2.80
3.32
4.29
5.59
6.97
8.18
9.00
9.37
9.34
9.04
8.56
7.93
7.13
6.16
5.05
3.87
2.72
1.63
0.59
-0.42
-1.39
-2.20
-2.72
-2.85
-2.58
-2.05
-1.43
-0.88
-0.45
-0.13
0.12
0.34
0.54
0.69
0.76
0.74
0.63
0.42
0.10
-0.32
-0.77
-1.22
-1.63
-2.01
-2.38
-2.76
-3.10
-3.29
-3.22
-2.86
-2.24
-1.52
-0.86
-0.37
-0.06
0.14
0.37
0.71
1.17
1.65
2.06
2.36
2.55
2.70
2.90
3.17
3.47
3.72
3.84
3.78
3.55
3.22
2.89
2.63
2.48
2.42
2.39
2.33
2.22
2.10
2.00
1.93
1.83
1.61
1.21
0.66
0.06
-0.43
-0.75
-0.90
-0.95
-0.99
-1.07
-1.19
-1.37
-1.62
-1.97
-2.42
-2.95
-3.48
-3.98
-4.47
-5.01
-5.66
-6.40
-7.14
-7.67
-7.80
-7.41
-6.49
-5.20
-3.75
-2.40
-1.32
-0.59
-0.15
0.13
0.33
0.50
0.62
0.65
0.61
0.58
0.69
1.04
1.59
2.22
2.78
3.14
3.27
3.27
3.24
3.26
3.32
3.36
3.34
3.24
3.11
2.98
2.89
2.80
2.68
2.50
2.25
1.98
1.69
1.35
0.94
0.43
-0.14
-0.67
-1.07
-1.31
-1.43
-1.57
-1.92
-2.54
-3.38
-4.27
-4.98
-5.33
-5.23
-4.78
-4.12
-3.43
-2.80
-2.22
-1.65
-1.03
-0.36
0.32
0.96
1.54
2.06
2.52
2.89
3.11
3.12
2.96
2.71
2.53
2.52
2.71
3.02
3.34
3.63
3.87
4.08
4.26
4.37
4.32
4.10
3.72
3.32
3.04
2.95
3.01
3.11
3.10
2.89
2.47
1.91
1.31
0.72
0.19
-0.30
-0.76
-1.17
-1.50
-1.76
-2.03
-2.43
-3.10
-4.01
-5.01
-5.83
-6.19
-5.97
-5.26
-4.30
-3.38
-2.64
-2.09
-1.57
-0.92
-0.04
1.01
2.10
3.07
3.84
4.40
4.80
5.09
5.28
5.37
5.34
5.23
5.09
5.05
5.17
5.45
5.85
6.25
6.54
6.64
6.55
6.33
6.07
5.86
5.72
5.63
5.50
5.23
4.78
4.22
3.70
3.43
3.50
3.89
4.42
4.76
4.62
3.80
2.28
0.24
-2.04
-4.25
-6.16
-7.69
-8.96
-10.28
-12.08
-14.76
-18.48
-23.02
-27.76
-31.87
-34.56
-35.42
-34.49
-32.23
-29.28
-26.15
-23.15
-20.36
-17.76
-15.36
-13.23
-11.43
-9.97
-8.69
-7.38
-5.76
-3.67
-1.01
2.14
5.58
9.07
12.36
15.23
17.58
19.36
20.54
21.07
20.89
19.98
18.44
16.49
14.48
12.75
11.56
10.97
10.87
11.02
11.17
11.13
10.86
10.39
9.76
9.04
8.23
7.35
6.47
5.70
5.22
5.17
5.57
6.31
7.19
7.99
8.56
8.89
9.02
9.04
9.01
8.98
9.00
9.12
9.38
9.75
10.15
10.42
10.41
10.05
9.38
8.54
7.72
7.06
6.61
6.33
6.11
5.88
5.64
5.43
5.26
5.08
4.80
4.31
3.59
2.78
2.03
1.49
1.13
0.84
0.43
-0.16
-0.83
-1.38
-1.64
-1.56
-1.34
-1.22
-1.42
-2.00
-2.80
-3.60
-4.21
-4.60
-4.88
-5.24
-5.80
-6.57
-7.50
-8.47
-9.37
-10.12
-10.59
-10.70
-10.37
-9.64
-8.64
-7.57
-6.58
-5.74
-5.03
-4.37
-3.74
-3.12
-2.53
-1.96
-1.38
-0.74
-0.06
0.63
1.21
1.61
1.80
1.81
1.70
1.53
1.39
1.37
1.51
1.82
2.21
2.57
2.79
2.86
2.83
2.81
2.88
3.05
3.28
3.45
3.47
3.29
2.92
2.40
1.81
1.22
0.69
0.28
0.00
-0.13
-0.16
-0.15
-0.15
-0.19
-0.27
-0.36
-0.42
-0.42
-0.40
-0.43
-0.57
-0.85
-1.26
-1.68
-2.04
-2.29
-2.51
-2.81
-3.33
-4.14
-5.15
-6.21
-7.11
-7.65
-7.75
-7.45
-6.89
-6.21
-5.53
-4.94
-4.43
-4.01
-3.70
-3.50
-3.40
-3.31
-3.09
-2.59
-1.78
-0.75
0.27
1.06
1.51
1.63
1.56
1.44
1.33
1.21
1.05
0.87
0.76
0.81
1.08
1.53
2.02
2.41
2.59
2.53
2.29
2.00
1.83
1.95
2.45
3.32
4.40
5.46
6.26
6.63
6.51
6.03
5.36
4.69
4.12
3.67
3.30
3.01
2.82
2.78
2.91
3.17
3.40
3.39
2.93
1.93
0.49
-1.16
-2.73
-3.98
-4.81
-5.26
-5.45
-5.54
-5.64
-5.78
-5.95
-6.10
-6.21
-6.28
-6.27
-6.15
-5.88
-5.44
-4.85
-4.17
-3.50
-2.93
-2.51
-2.19
-1.91
-1.55
-1.04
-0.41
0.26
0.80
1.09
1.08
0.86
0.56
0.35
0.31
0.45
0.69
0.94
1.19
1.47
1.82
2.28
2.77
3.17
3.28
3.02
2.41
1.61
0.89
0.44
0.33
0.49
0.73
0.86
0.81
0.62
0.40
0.23
0.10
-0.07
-0.39
-0.91
-1.56
-2.27
-2.92
-3.48
-3.92
-4.26
-4.49
-4.57
-4.47
-4.21
-3.80
-3.32
-2.83
-2.35
-1.91
-1.50
-1.10
-0.70
-0.31
0.06
0.38
0.62
0.80
0.91
0.99
1.02
1.04
1.07
1.18
1.40
1.70
1.99
2.17
2.16
1.97
1.72
1.56
1.56
1.69
1.86
1.95
1.89
1.73
1.54
1.40
1.32
1.30
1.29
1.26
1.21
1.13
1.03
0.92
0.80
0.67
0.54
0.39
0.18
-0.09
-0.45
-0.89
-1.39
-1.91
-2.38
-2.79
-3.16
-3.53
-3.91
-4.31
-4.68
-4.90
-4.88
-4.57
-4.03
-3.39
-2.80
-2.39
-2.18
-2.07
-1.89
-1.49
-0.84
-0.04
0.73
1.31
1.60
1.66
1.60
1.53
1.50
1.54
1.63
1.76
1.91
2.05
2.14
2.13
2.03
1.91
1.84
1.85
1.94
2.06
2.12
2.09
1.98
1.82
1.64
1.44
1.17
0.84
0.48
0.17
0.00
0.02
0.19
0.43
0.62
0.70
0.66
0.57
0.52
0.60
0.82
1.15
1.47
1.68
1.66
1.41
0.98
0.44
-0.13
-0.69
-1.27
-1.92
-2.66
-3.43
-4.18
-4.81
-5.28
-5.63
-5.87
-6.02
-6.01
-5.77
-5.23
-4.45
-3.58
-2.82
-2.33
-2.16
-2.23
-2.38
-2.45
-2.34
-2.04
-1.63
-1.18
-0.73
-0.32
0.07
0.41
0.70
0.89
1.00
1.03
1.05
1.09
1.17
1.27
1.42
1.58
1.75
1.88
1.94
1.91
1.83
1.75
1.71
1.74
1.79
1.82
1.79
1.70
1.57
1.42
1.25
1.08
0.93
0.87
0.93
1.11
1.31
1.43
1.36
1.10
0.74
0.38
0.08
-0.18
-0.42
-0.65
-0.84
-1.00
-1.16
-1.43
-1.93
-2.67
-3.54
-4.35
-4.89
-5.08
-4.99
-4.77
-4.56
-4.42
-4.28
-4.03
-3.61
-3.06
-2.51
-2.11
-1.94
-1.97
-2.07
-2.06
-1.80
-1.31
-0.71
-0.19
0.11
0.16
0.04
-0.06
-0.03
0.19
0.56
0.98
1.34
1.58
1.69
1.69
1.64
1.58
1.54
1.54
1.57
1.59
1.60
1.59
1.59
1.64
1.73
1.81
1.80
1.65
1.35
0.99
0.66
0.46
0.41
0.47
0.54
0.49
0.27
-0.11
-0.58
-1.01
-1.29
-1.41
-1.43
-1.46
-1.61
-1.90
-2.28
-2.68
-3.03
-3.31
-3.52
-3.66
-3.71
-3.65
-3.44
-3.09
-2.62
-2.07
-1.48
-0.90
-0.39
0.01
0.26
0.39
0.50
0.71
1.06
1.51
1.93
2.15
2.11
1.86
1.55
1.36
1.33
1.43
1.53
1.57
1.57
1.62
1.79
2.03
2.24
2.28
2.11
1.81
1.55
1.42
1.42
1.43
1.27
0.88
0.34
-0.19
-0.52
-0.61
-0.52
-0.39
-0.40
-0.61
-1.01
-1.51
-2.01
-2.44
-2.81
-3.18
-3.58
-4.02
-4.44
-4.74
-4.84
-4.73
-4.45
-4.06
-3.62
-3.12
-2.55
-1.91
-1.26
-0.68
-0.22
0.13
0.45
0.80
1.22
1.67
2.09
2.42
2.66
2.84
3.02
3.20
3.36
3.47
3.45
3.33
3.14
2.98
2.92
3.02
3.23
3.46
3.60
3.60
3.46
3.28
3.14
3.09
3.10
3.06
2.87
2.49
2.01
1.54
1.20
1.01
0.92
0.82
0.65
0.41
0.15
-0.03
-0.11
-0.08
-0.05
-0.11
-0.35
-0.80
-1.36
-1.95
-2.51
-3.04
-3.60
-4.27
-5.08
-5.91
-6.59
-6.95
-6.93
-6.58
-6.05
-5.52
-5.09
-4.76
-4.45
-4.06
-3.50
-2.78
-1.94
-1.09
-0.30
0.37
0.94
1.41
1.80
2.11
2.32
2.42
2.47
2.54
2.70
3.00
3.38
3.77
4.07
4.24
4.30
4.31
4.33
4.38
4.40
4.31
4.06
3.65
3.16
2.71
2.43
2.34
2.40
2.51
2.55
2.46
2.22
1.89
1.52
1.18
0.90
0.72
0.61
0.54
0.43
0.21
-0.10
-0.47
-0.76
-0.88
-0.80
-0.59
-0.37
-0.30
-0.39
-0.60
-0.82
-0.96
-1.03
-1.10
-1.30
-1.73
-2.40
-3.23
-4.07
-4.76
-5.19
-5.32
-5.19
-4.85
-4.35
-3.72
-3.00
-2.25
-1.52
-0.87
-0.31
0.20
0.71
1.21
1.67
2.01
2.19
2.24
2.26
2.37
2.67
3.16
3.80
4.52
5.23
5.90
6.49
6.94
7.17
7.13
6.78
6.18
5.44
4.69
4.01
3.44
2.91
2.37
1.79
1.18
0.62
0.17
-0.13
-0.27
-0.31
-0.27
-0.20
-0.14
-0.18
-0.38
-0.78
-1.37
-2.05
-2.71
-3.25
-3.63
-3.87
-4.02
-4.15
-4.28
-4.45
-4.70
-5.04
-5.47
-5.89
-6.19
-6.22
-5.94
-5.37
-4.63
-3.85
-3.09
-2.37
-1.68
-1.04
-0.48
-0.05
0.20
0.27
0.17
-0.06
-0.41
-0.82
-1.22
-1.47
-1.47
-1.23
-0.84
-0.47
-0.24
-0.14
-0.06
0.16
0.59
1.17
1.73
2.15
2.41
2.60
2.88
3.30
3.81
4.25
4.49
4.50
4.39
4.31
4.33
4.40
4.37
4.13
3.63
2.92
2.14
1.38
0.69
0.06
-0.53
-1.08
-1.56
-1.98
-2.37
-2.79
-3.26
-3.76
-4.17
-4.38
-4.33
-4.13
-3.98
-4.09
-4.52
-5.16
-5.74
-5.94
-5.58
-4.70
-3.53
-2.37
-1.50
-1.02
-0.89
-0.98
-1.11
-1.18
-1.14
-0.95
-0.53
0.20
1.33
2.82
4.53
6.20
7.60
8.62
9.29
9.73
10.00
10.07
9.82
9.15
8.10
6.90
5.84
5.11
4.75
4.61
4.52
4.39
4.27
4.26
4.43
4.68
4.78
4.44
3.50
2.02
0.23
-1.51
-2.93
-3.89
-4.44
-4.77
-5.06
-5.43
-5.87
-6.31
-6.66
-6.91
-7.13
-7.43
-7.90
-8.51
-9.15
-9.65
-9.91
-9.90
-9.70
-9.44
-9.19
-8.92
-8.50
-7.76
-6.63
-5.15
-3.48
-1.83
-0.38
0.78
1.65
2.30
2.84
3.33
3.79
4.20
4.52
4.73
4.84
4.92
5.01
5.16
5.40
5.69
5.99
6.21
6.27
6.14
5.82
5.35
4.80
4.21
3.57
2.87
2.09
1.29
0.55
0.03
-0.23
-0.27
-0.25
-0.34
-0.64
-1.09
-1.55
-1.87
-2.00
-2.03
-2.13
-2.45
-3.00
-3.71
-4.39
-4.88
-5.12
-5.08
-4.82
-4.36
-3.72
-2.94
-2.12
-1.42
-0.97
-0.80
-0.82
-0.85
-0.73
-0.40
0.10
0.65
1.15
1.59
1.97
2.35
2.72
3.06
3.34
3.55
3.74
3.89
3.95
3.83
3.47
2.89
2.23
1.66
1.32
1.19
1.15
1.02
0.65
0.03
-0.75
-1.55
-2.17
-2.51
-2.55
-2.36
-2.11
-1.98
-2.08
-2.48
-3.12
-3.86
-4.54
-5.02
-5.19
-5.00
-4.48
-3.66
-2.67
-1.64
-0.72
-0.00
0.48
0.77
1.02
1.34
1.82
2.44
3.12
3.73
4.13
4.29
4.24
4.05
3.82
3.63
3.52
3.53
3.63
3.79
3.94
4.01
3.97
3.81
3.58
3.33
3.08
2.83
2.54
2.21
1.86
1.49
1.10
0.66
0.14
-0.44
-0.98
-1.39
-1.60
-1.69
-1.76
-1.99
-2.48
-3.19
-4.00
-4.72
-5.21
-5.43
-5.39
-5.16
-4.77
-4.20
-3.41
-2.43
-1.36
-0.39
0.30
0.62
0.64
0.57
0.64
1.02
1.67
2.42
3.03
3.33
3.34
3.19
3.08
3.15
3.43
3.81
4.19
4.47
4.63
4.69
4.70
4.71
4.73
4.77
4.83
4.88
4.88
4.77
4.54
4.20
3.83
3.55
3.43
3.51
3.69
3.85
3.85
3.58
3.03
2.30
1.52
0.84
0.38
0.17
0.19
0.34
0.54
0.69
0.72
0.60
0.33
-0.06
-0.52
-0.97
-1.35
-1.64
-1.86
-2.07
-2.35
-2.75
-3.25
-3.78
-4.24
-4.59
-4.87
-5.21
-5.74
-6.51
-7.44
-8.36
-9.02
-9.25
-9.01
-8.37
-7.49
-6.54
-5.62
-4.76
-3.95
-3.19
-2.47
-1.82
-1.25
-0.71
-0.17
0.42
1.08
1.78
2.47
3.11
3.65
4.09
4.46
4.78
5.07
5.32
5.49
5.55
5.45
5.21
4.88
4.54
4.24
4.02
3.88
3.84
3.93
4.21
4.66
5.20
5.66
5.81
5.52
4.77
3.69
2.46
1.30
0.31
-0.51
-1.23
-2.00
-2.97
-4.26
-5.90
-7.78
-9.65
-11.23
-12.29
-12.76
-12.77
-12.53
-12.21
-11.88
-11.47
-10.86
-10.05
-9.12
-8.29
-7.71
-7.38
-7.15
-6.75
-5.99
-4.81
-3.33
-1.73
-0.14
1.39
2.91
4.40
5.74
6.70
7.04
6.67
5.70
4.47
3.36
2.67
2.52
2.86
3.52
4.38
5.33
6.34
7.31
8.09
8.49
8.34
7.57
6.34
4.94
3.74
3.02
2.90
3.32
4.06
4.83
5.38
5.56
5.33
4.75
3.94
3.03
2.11
1.25
0.42
-0.41
-1.27
-2.19
-3.16
-4.15
-5.16
-6.16
-7.18
-8.28
-9.51
-10.86
-12.27
-13.52
-14.36
-14.51
-13.87
-12.45
-10.42
-7.98
-5.29
-2.44
0.48
3.32
5.90
7.99
9.45
10.24
10.45
10.22
9.76
9.20
8.66
8.18
7.80
7.51
7.33
7.27
7.32
7.46
7.62
7.65
7.41
6.81
5.80
4.47
2.97
1.46
0.08
-1.10
-2.09
-2.95
-3.76
-4.55
-5.30
-5.91
-6.27
-6.32
-6.02
-5.44
-4.63
-3.64
-2.48
-1.19
0.18
1.50
2.62
3.38
3.67
3.45
2.77
1.75
0.51
-0.88
-2.40
-4.07
-5.87
-7.67
-9.24
-10.33
-10.78
-10.62
-10.00
-9.15
-8.23
-7.24
-6.11
-4.76
-3.23
-1.67
-0.27
0.82
1.59
2.11
2.50
2.80
3.01
3.06
2.95
2.76
2.64
2.71
3.02
3.47
3.89
4.16
4.26
4.32
4.49
4.89
5.51
6.23
6.89
7.41
7.75
7.92
7.92
7.72
7.29
6.68
6.00
5.43
5.10
5.09
5.30
5.58
5.74
5.67
5.39
5.03
4.80
4.87
5.29
5.88
6.39
6.52
6.19
5.58
5.14
5.34
6.50
8.60
11.26
13.97
16.27
18.05
19.57
21.33
23.79
27.12
31.04
34.88
37.95
39.81
40.59
40.85
41.29
42.35
43.96
45.59
46.40
45.46
41.77
34.22
21.76
3.75
-19.31
-45.43
-71.30
-93.34
-108.97
-117.67
-120.85
-120.80
-119.14
-115.82
-109.34
-97.89
-80.90
-59.79
-37.67
-18.05
-3.42
5.59
10.00
11.58
11.87
11.53
10.54
8.62
5.89
3.02
1.07
0.92
2.83
6.22
9.85
12.34
12.72
10.81
7.25
3.11
-0.56
-3.15
-4.65
-5.40
-5.81
-6.09
-6.15
-5.71
-4.53
-2.59
-0.14
2.35
4.39
5.64
6.04
5.76
5.16
4.63
4.43
4.64
5.14
5.74
6.25
6.61
6.82
6.93
6.97
6.94
6.81
6.61
6.37
6.17
6.09
6.15
6.37
6.71
7.05
7.30
7.32
7.05
6.50
5.75
4.94
4.16
3.48
2.92
2.49
2.19
1.99
1.86
1.73
1.51
1.20
0.82
0.43
0.12
-0.09
-0.25
-0.42
-0.70
-1.15
-1.81
-2.64
-3.57
-4.48
-5.19
-5.59
-5.60
-5.27
-4.69
-4.01
-3.34
-2.70
-2.07
-1.39
-0.63
0.21
1.08
1.89
2.56
3.06
3.40
3.63
3.83
4.06
4.34
4.65
4.95
5.19
5.36
5.44
5.45
5.37
5.22
5.03
4.83
4.66
4.55
4.49
4.45
4.36
4.18
3.86
3.41
2.87
2.31
1.79
1.37
1.09
0.93
0.87
0.84
0.80
0.68
0.47
0.15
-0.27
-0.79
-1.38
-2.05
-2.77
-3.56
-4.40
-5.30
-6.22
-7.08
-7.74
-8.07
-7.96
-7.39
-6.42
-5.22
-3.94
-2.74
-1.67
-0.74
0.07
0.78
1.36
1.83
2.24
2.65
3.12
3.65
4.19
4.66
5.01
5.22
5.35
5.43
5.51
5.59
5.66
5.71
5.77
5.89
6.06
6.20
6.21
5.95
5.39
4.62
3.80
3.11
2.67
2.50
2.50
2.55
2.54
2.44
2.28
2.09
1.92
1.77
1.62
1.42
1.18
0.88
0.54
0.18
-0.23
-0.71
-1.26
-1.88
-2.55
-3.21
-3.82
-4.37
-4.86
-5.35
-5.90
-6.51
-7.15
-7.70
-8.02
-8.00
-7.59
-6.85
-5.90
-4.87
-3.87
-2.94
-2.06
-1.25
-0.50
0.14
0.65
1.04
1.38
1.73
2.19
2.73
3.30
3.81
4.16
4.34
4.36
4.32
4.30
4.36
4.51
4.70
4.85
4.94
4.97
4.99
5.03
5.05
4.92
4.54
3.87
3.05
2.27
1.77
1.61
1.70
1.84
1.82
1.61
1.31
1.09
1.05
1.14
1.20
1.10
0.76
0.23
-0.37
-0.95
-1.47
-1.92
-2.32
-2.70
-3.04
-3.36
-3.66
-4.01
-4.43
-4.93
-5.45
-5.95
-6.34
-6.57
-6.56
-6.26
-5.67
-4.84
-3.89
-2.94
-2.10
-1.39
-0.74
-0.03
0.84
1.86
2.88
3.69
4.13
4.18
3.98
3.76
3.73
3.93
4.29
4.63
4.80
4.80
4.69
4.59
4.59
4.66
4.73
4.72
4.61
4.42
4.23
4.10
4.06
4.05
4.02
3.91
3.67
3.32
2.87
2.38
1.89
1.48
1.20
1.05
0.97
0.87
0.65
0.25
-0.31
-0.96
-1.58
-2.11
-2.52
-2.85
-3.14
-3.40
-3.61
-3.77
-3.91
-4.12
-4.55
-5.27
-6.28
-7.40
-8.39
-8.99
-9.02
-8.43
-7.32
-5.89
-4.37
-2.97
-1.81
-0.93
-0.28
0.27
0.83
1.51
2.28
3.08
3.77
4.23
4.40
4.34
4.13
3.91
3.78
3.79
3.93
4.19
4.52
4.87
5.19
5.39
5.42
5.24
4.87
4.35
3.77
3.20
2.68
2.27
1.98
1.84
1.84
1.92
2.02
2.07
2.03
1.90
1.70
1.45
1.15
0.80
0.41
-0.00
-0.41
-0.75
-0.99
-1.08
-0.99
-0.81
-0.62
-0.58
-0.80
-1.29
-1.93
-2.59
-3.14
-3.56
-3.91
-4.30
-4.78
-5.33
-5.90
-6.44
-6.96
-7.42
-7.77
-7.87
-7.57
-6.83
-5.73
-4.46
-3.20
-2.09
-1.19
-0.50
-0.03
0.26
0.42
0.57
0.90
1.51
2.40
3.39
4.23
4.70
4.76
4.50
4.13
3.83
3.70
3.73
3.87
4.02
4.11
4.10
3.98
3.75
3.44
3.10
2.82
2.64
2.61
2.71
2.87
3.01
3.05
2.95
2.67
2.24
1.72
1.15
0.58
0.02
-0.53
-1.07
-1.61
-2.16
-2.69
-3.16
-3.51
-3.74
-3.89
-4.07
-4.36
-4.80
-5.35
-5.84
-6.14
-6.15
-5.89
-5.50
-5.09
-4.74
-4.42
-4.00
-3.34
-2.42
-1.33
-0.25
0.62
1.18
1.40
1.37
1.23
1.12
1.15
1.36
1.73
2.20
2.68
3.09
3.38
3.55
3.62
3.59
3.43
3.12
2.66
2.11
1.61
1.32
1.33
1.61
2.05
2.51
2.85
2.99
2.94
2.72
2.37
1.94
1.51
1.17
0.98
0.97
1.10
1.30
1.46
1.49
1.35
1.03
0.58
0.08
-0.38
-0.74
-0.96
-1.08
-1.15
-1.25
-1.46
-1.81
-2.29
-2.82
-3.23
-3.32
-2.93
-1.97
-0.53
1.20
2.97
4.59
6.05
7.45
8.95
10.62
12.39
14.01
15.21
15.77
15.61
14.84
13.66
12.37
11.24
10.57
10.62
11.56
13.43
16.08
19.11
21.98
24.09
24.95
24.31
22.20
18.86
14.67
10.02
5.22
0.59
-3.53
-6.74
-8.66
-9.12
-8.21
-6.38
-4.23
-2.28
-0.79
0.35
1.38
2.47
3.54
4.28
4.39
3.75
2.62
1.50
0.96
1.41
2.90
5.23
8.05
11.10
14.24
17.26
19.78
21.07
20.24
16.55
9.85
0.75
-9.47
-19.27
-27.44
-33.35
-36.94
-38.41
-38.00
-35.83
-32.20
-27.69
-23.29
-20.08
-18.83
-19.63
-21.84
-24.36
-26.10
-26.37
-25.07
-22.59
-19.58
-16.68
-14.35
-12.84
-12.19
-12.29
-12.85
-13.55
-14.09
-14.21
-13.80
-12.87
-11.54
-9.95
-8.30
-6.75
-5.48
-4.59
-4.13
-4.07
-4.28
-4.62
-4.97
-5.28
-5.61
-6.02
-6.50
-6.98
-7.32
-7.38
-7.13
-6.64
-6.08
-5.67
-5.55
-5.79
-6.32
-6.99
-7.62
-8.00
-8.03
-7.66
-6.96
-6.07
-5.16
-4.40
-3.87
-3.59
-3.46
-3.32
-3.01
-2.39
-1.43
-0.20
1.14
2.40
3.41
4.11
4.54
4.83
5.14
5.62
6.33
7.30
8.50
9.86
11.28
12.62
13.71
14.35
14.43
13.97
13.18
12.35
11.73
11.42
11.30
11.14
10.69
9.87
8.74
7.44
6.10
4.76
3.40
2.03
0.72
-0.37
-1.13
-1.54
-1.70
-1.80
-2.02
-2.41
-2.95
-3.53
-4.05
-4.47
-4.79
-5.03
-5.26
-5.50
-5.78
-6.08
-6.32
-6.45
-6.37
-6.07
-5.57
-4.93
-4.23
-3.55
-2.93
-2.40
-1.94
-1.51
-1.03
-0.43
0.33
1.22
2.16
3.03
3.78
4.39
4.92
5.44
5.92
6.33
6.56
6.58
6.45
6.29
6.22
6.27
6.41
6.51
6.46
6.21
5.81
5.35
4.91
4.59
4.42
4.42
4.56
4.76
4.91
4.90
4.66
4.22
3.63
3.01
2.46
2.05
1.77
1.59
1.47
1.37
1.28
1.21
1.19
1.20
1.23
1.15
0.84
0.21
-0.73
-1.84
-2.90
-3.79
-4.46
-5.03
-5.63
-6.36
-7.16
-7.91
-8.45
-8.69
-8.64
-8.38
-7.95
-7.37
-6.65
-5.76
-4.76
-3.73
-2.74
-1.83
-0.99
-0.18
0.65
1.47
2.27
2.96
3.51
3.87
4.04
4.04
3.94
3.84
3.84
4.00
4.33
4.73
5.05
5.21
5.17
4.99
4.77
4.59
4.43
4.18
3.74
3.11
2.38
1.74
1.34
1.25
1.41
1.66
1.89
2.05
2.13
2.17
2.19
2.16
2.04
1.78
1.34
0.73
-0.02
-0.81
-1.54
-2.09
-2.43
-2.59
-2.68
-2.80
-2.96
-3.07
-3.01
-2.67
-2.06
-1.33
-0.68
-0.24
-0.01
0.10
0.26
0.53
0.90
1.27
1.55
1.72
1.90
2.21
2.72
3.34
3.88
4.11
3.95
3.51
3.04
2.76
2.78
3.03
3.28
3.33
3.09
2.59
1.94
1.27
0.64
0.06
-0.47
-0.97
-1.40
-1.73
-1.89
-1.86
-1.63
-1.26
-0.85
-0.49
-0.25
-0.14
-0.13
-0.19
-0.30
-0.48
-0.75
-1.11
-1.50
-1.89
-2.29
-2.71
-3.20
-3.77
-4.41
-5.08
-5.76
-6.44
-7.10
-7.66
-8.02
-8.08
-7.82
-7.29
-6.60
-5.85
-5.04
-4.10
-2.95
-1.58
-0.06
1.47
2.90
4.20
5.39
6.53
7.63
8.67
9.62
10.50
11.36
12.27
13.27
14.35
15.47
16.64
17.85
19.13
20.50
21.97
23.56
25.30
27.25
29.47
31.94
34.57
37.21
39.76
42.23
44.70
47.33
50.26
53.57
57.31
61.46
65.89
70.25
73.98
76.26
76.22
73.17
66.77
57.19
45.10
31.62
18.21
6.44
-2.23
-6.69
-6.52
-2.03
5.61
14.49
22.10
25.71
22.62
10.63
-11.62
-44.18
-85.55
-132.56
-180.80
-225.22
-260.93
-283.99
-291.96
-284.22
-262.05
-228.35
-187.23
-143.29
-100.83
-63.15
-32.14
-8.20
9.39
21.96
30.86
37.18
41.68
44.87
47.08
48.47
49.03
48.67
47.22
44.64
41.05
36.82
32.42
28.35
25.00
22.49
20.76
19.54
18.53
17.48
16.28
14.95
13.59
12.27
11.02
9.75
8.34
6.75
5.03
3.38
2.04
1.25
1.06
1.42
2.13
2.94
3.69
4.33
4.92
5.59
6.46
7.55
8.80
10.10
11.27
12.17
12.71
12.87
12.72
12.36
11.92
11.48
11.10
10.74
10.34
9.87
9.31
8.70
8.13
7.64
7.22
6.84
6.39
5.81
5.07
4.22
3.30
2.40
1.56
0.83
0.24
-0.17
-0.39
-0.43
-0.39
-0.40
-0.61
-1.07
-1.72
-2.38
-2.87
-3.05
-2.92
-2.51
-1.88
-1.09
-0.09
1.10
2.42
3.76
4.95
5.86
6.44
6.69
6.66
6.44
6.10
5.75
5.46
5.30
5.34
5.54
5.80
5.98
5.90
5.47
4.71
3.78
2.88
2.20
1.80
1.67
1.70
1.77
1.78
1.68
1.47
1.16
0.81
0.48
0.23
0.11
0.11
0.15
0.11
-0.10
-0.55
-1.20
-1.95
-2.69
-3.27
-3.61
-3.65
-3.43
-3.03
-2.52
-1.98
-1.42
-0.85
-0.22
0.48
1.22
1.98
2.73
3.42
4.04
4.55
4.91
5.10
5.12
5.05
5.00
5.08
5.36
5.82
6.38
6.88
7.20
7.21
6.91
6.30
5.44
4.41
3.30
2.20
1.20
0.39
-0.19
-0.52
-0.61
-0.51
-0.33
-0.21
-0.32
-0.73
-1.43
-2.31
-3.22
-3.99
-4.53
-4.78
-4.71
-4.34
-3.70
-2.85
-1.92
-1.04
-0.31
0.26
0.73
1.21
1.79
2.49
3.26
4.01
4.65
5.10
5.35
5.43
5.44
5.52
5.76
6.18
6.67
7.08
7.28
7.22
6.95
6.57
6.16
5.73
5.26
4.74
4.23
3.80
3.52
3.38
3.28
3.11
2.82
2.49
2.28
2.32
2.68
3.27
3.88
4.34
4.50
4.37
4.02
3.55
3.02
2.44
1.81
1.12
0.40
-0.34
-1.06
-1.75
-2.41
-2.99
-3.48
-3.87
-4.18
-4.48
-4.82
-5.21
-5.63
-6.03
-6.44
-6.92
-7.51
-8.23
-8.93
-9.42
-9.51
-9.09
-8.21
-7.00
-5.64
-4.29
-3.07
-2.09
-1.40
-0.98
-0.78
-0.65
-0.43
-0.02
0.60
1.38
2.20
2.99
3.74
4.44
5.11
5.69
6.06
6.14
5.89
5.40
4.84
4.39
4.13
4.05
4.06
4.04
3.93
3.78
3.66
3.67
3.81
4.00
4.16
4.19
4.06
3.85
3.62
3.44
3.30
3.17
2.97
2.69
2.36
2.06
1.84
1.70
1.56
1.34
0.97
0.43
-0.22
-0.87
-1.44
-1.84
-2.05
-2.09
-2.03
-1.93
-1.87
-1.93
-2.10
-2.37
-2.67
-2.95
-3.12
-3.18
-3.16
-3.15
-3.29
-3.68
-4.39
-5.33
-6.38
-7.33
-7.98
-8.21
-7.95
-7.22
-6.13
-4.86
-3.61
-2.54
-1.73
-1.14
-0.63
-0.06
0.69
1.59
2.56
3.50
4.33
5.05
5.66
6.22
6.72
7.13
7.42
7.57
7.62
7.63
7.66
7.75
7.86
7.93
7.94
7.93
8.00
8.29
8.86
9.63
10.41
10.95
11.09
10.80
10.23
9.55
8.92
8.35
7.79
7.16
6.46
5.85
5.54
5.75
6.49
7.54
8.52
8.98
8.66
7.59
6.09
4.74
4.15
4.83
7.07
10.87
15.98
21.85
27.74
32.85
36.48
38.25
38.22
36.79
34.60
32.23
30.03
27.80
24.84
20.17
13.08
3.70
-6.82
-16.61
-23.78
-27.35
-27.64
-26.18
-24.88
-25.19
-27.49
-31.13
-34.94
-37.91
-39.57
-39.97
-39.42
-38.21
-36.43
-34.10
-31.25
-28.02
-24.72
-21.75
-19.43
-17.90
-17.11
-16.78
-16.56
-16.14
-15.38
-14.35
-13.29
-12.45
-12.01
-11.98
-12.26
-12.72
-13.32
-14.18
-15.51
-17.43
-19.84
-22.24
-23.93
-24.14
-22.35
-18.52
-13.09
-6.88
-0.83
4.27
7.98
10.20
11.17
11.26
10.83
10.14
9.34
8.49
7.63
6.79
6.03
5.39
4.91
4.64
4.61
4.84
5.27
5.82
6.35
6.73
6.89
6.86
6.69
6.44
6.08
5.51
4.66
3.50
2.15
0.78
-0.39
-1.26
-1.83
-2.17
-2.37
-2.52
-2.64
-2.73
-2.79
-2.82
-2.80
-2.71
-2.49
-2.11
-1.57
-0.95
-0.35
0.11
0.38
0.52
0.63
0.83
1.19
1.63
2.00
2.07
1.71
0.93
-0.09
-1.11
-1.84
-2.15
-2.06
-1.67
-1.15
-0.59
-0.05
0.46
0.95
1.38
1.69
1.80
1.66
1.26
0.63
-0.12
-0.89
-1.60
-2.23
-2.82
-3.50
-4.34
-5.36
-6.43
-7.35
-7.89
-7.93
-7.49
-6.66
-5.59
-4.38
-3.09
-1.75
-0.46
0.69
1.59
2.21
2.59
2.82
2.95
3.00
2.91
2.65
2.22
1.71
1.25
0.93
0.78
0.77
0.86
1.04
1.31
1.71
2.25
2.91
3.59
4.16
4.52
4.63
4.48
4.18
3.84
3.57
3.46
3.52
3.73
3.98
4.16
4.20
4.09
3.87
3.64
3.44
3.28
3.09
2.77
2.30
1.73
1.19
0.80
0.59
0.47
0.28
-0.13
-0.78
-1.57
-2.33
-2.91
-3.21
-3.27
-3.23
-3.27
-3.53
-4.11
-4.94
-5.86
-6.64
-7.07
-7.09
-6.75
-6.20
-5.59
-4.97
-4.30
-3.56
-2.76
-2.03
-1.51
-1.31
-1.35
-1.44
-1.36
-0.94
-0.18
0.79
1.74
2.44
2.80
2.81
2.61
2.37
2.26
2.36
2.66
3.05
3.43
3.71
3.88
3.94
3.91
3.77
3.52
3.19
2.84
2.61
2.61
2.86
3.29
3.76
4.10
4.21
4.10
3.87
3.66
3.61
3.78
4.09
4.38
4.47
4.23
3.66
2.88
2.08
1.41
0.90
0.54
0.26
0.02
-0.16
-0.22
-0.18
-0.08
-0.06
-0.22
-0.60
-1.15
-1.74
-2.27
-2.70
-3.08
-3.51
-4.12
-4.97
-6.05
-7.26
-8.40
-9.25
-9.64
-9.48
-8.78
-7.67
-6.33
-4.97
-3.76
-2.78
-2.08
-1.64
-1.39
-1.26
-1.16
-1.01
-0.76
-0.44
-0.05
0.37
0.85
1.45
2.20
3.09
4.04
4.93
5.62
6.06
6.24
6.20
5.99
5.62
5.08
4.40
3.70
3.12
2.85
2.95
3.37
3.91
4.35
4.53
4.45
4.24
4.05
3.99
4.09
4.26
4.41
4.46
4.38
4.17
3.86
3.49
3.11
2.81
2.62
2.54
2.51
2.40
2.10
1.57
0.82
-0.00
-0.77
-1.35
-1.73
-1.99
-2.26
-2.69
-3.34
-4.15
-4.98
-5.64
-5.99
-6.06
-5.96
-5.88
-5.95
-6.20
-6.53
-6.79
-6.84
-6.61
-6.10
-5.36
-4.45
-3.46
-2.44
-1.45
-0.51
0.34
1.07
1.63
1.97
2.09
2.04
1.92
1.82
1.84
1.99
2.23
2.50
2.75
2.96
3.16
3.39
3.67
3.98
4.26
4.47
4.61
4.69
4.74
4.76
4.72
4.56
4.23
3.71
3.05
2.35
1.73
1.28
1.04
0.96
0.97
0.97
0.91
0.74
0.45
0.04
-0.50
-1.14
-1.82
-2.46
-2.95
-3.22
-3.26
-3.13
-2.98
-2.96
-3.20
-3.75
-4.56
-5.50
-6.37
-7.01
-7.31
-7.29
-7.00
-6.52
-5.85
-4.98
-3.87
-2.61
-1.35
-0.31
0.33
0.56
0.49
0.34
0.31
0.50
0.88
1.34
1.77
2.15
2.47
2.76
3.04
3.25
3.33
3.22
2.96
2.66
2.47
2.52
2.84
3.34
3.83
4.13
4.12
3.82
3.35
2.88
2.56
2.46
2.53
2.66
2.72
2.65
2.42
2.10
1.73
1.36
1.02
0.72
0.46
0.23
0.02
-0.16
-0.30
-0.38
-0.37
-0.26
-0.11
-0.01
-0.07
-0.35
-0.81
-1.35
-1.87
-2.33
-2.76
-3.23
-3.80
-4.49
-5.27
-6.10
-6.97
-7.83
-8.62
-9.19
-9.39
-9.10
-8.29
-7.06
-5.62
-4.21
-3.01
-2.13
-1.55
-1.18
-0.95
-0.77
-0.57
-0.27
0.16
0.76
1.46
2.17
2.76
3.14
3.30
3.28
3.21
3.17
3.19
3.27
3.37
3.47
3.57
3.67
3.73
3.73
3.68
3.62
3.64
3.79
4.03
4.27
4.38
4.29
4.04
3.72
3.49
3.41
3.47
3.61
3.73
3.78
3.76
3.68
3.57
3.42
3.23
3.01
2.77
2.52
2.26
1.95
1.60
1.20
0.82
0.51
0.34
0.28
0.28
0.23
0.04
-0.38
-1.01
-1.77
-2.53
-3.15
-3.59
-3.85
-4.02
-4.20
-4.45
-4.80
-5.18
-5.53
-5.77
-5.83
-5.66
-5.28
-4.71
-4.02
-3.33
-2.72
-2.21
-1.81
-1.45
-1.10
-0.74
-0.40
-0.10
0.15
0.40
0.71
1.12
1.64
2.22
2.76
3.17
3.41
3.49
3.52
3.61
3.85
4.27
4.82
5.36
5.72
5.79
5.54
5.03
4.37
3.71
3.14
2.77
2.60
2.65
2.84
3.08
3.27
3.31
3.18
2.89
2.50
2.05
1.58
1.07
0.51
-0.08
-0.69
-1.25
-1.70
-2.03
-2.19
-2.23
-2.19
-2.16
-2.24
-2.50
-2.92
-3.46
-4.03
-4.55
-5.02
-5.46
-5.94
-6.49
-7.06
-7.57
-7.88
-7.85
-7.45
-6.68
-5.70
-4.66
-3.72
-3.01
-2.56
-2.34
-2.25
-2.16
-1.92
-1.45
-0.72
0.20
1.19
2.10
2.82
3.32
3.65
3.89
4.09
4.25
4.33
4.34
4.31
4.32
4.42
4.59
4.74
4.75
4.53
4.10
3.55
3.06
2.75
2.65
2.67
2.71
2.69
2.60
2.50
2.43
2.40
2.38
2.30
2.12
1.83
1.50
1.17
0.92
0.80
0.85
1.05
1.36
1.67
1.81
1.66
1.20
0.54
-0.11
-0.53
-0.61
-0.40
-0.10
0.05
-0.12
-0.63
-1.36
-2.09
-2.66
-2.99
-3.13
-3.20
-3.34
-3.61
-4.01
-4.50
-5.06
-5.69
-6.41
-7.16
-7.82
-8.17
-8.03
-7.31
-6.11
-4.67
-3.28
-2.17
-1.44
-1.03
-0.80
-0.59
-0.33
0.02
0.44
0.90
1.40
1.94
2.48
2.98
3.37
3.61
3.68
3.66
3.62
3.63
3.73
3.88
4.03
4.13
4.16
4.14
4.10
4.03
3.93
3.79
3.63
3.48
3.39
3.37
3.37
3.32
3.13
2.81
2.43
2.10
1.94
1.95
2.09
2.21
2.20
2.00
1.63
1.12
0.56
0.01
-0.47
-0.83
-1.04
-1.08
-0.99
-0.84
-0.74
-0.84
-1.16
-1.68
-2.30
-2.86
-3.24
-3.43
-3.49
-3.57
-3.80
-4.24
-4.88
-5.58
-6.22
-6.64
-6.73
-6.46
-5.86
-5.02
-4.07
-3.15
-2.35
-1.72
-1.26
-0.92
-0.61
-0.27
0.15
0.62
1.08
1.47
1.74
1.87
1.93
2.02
2.23
2.60
3.06
3.50
3.80
3.90
3.83
3.71
3.63
3.64
3.68
3.67
3.52
3.24
2.90
2.62
2.48
2.47
2.51
2.49
2.35
2.08
1.74
1.39
1.11
0.90
0.76
0.65
0.55
0.45
0.41
0.45
0.59
0.78
0.92
0.88
0.59
0.05
-0.64
-1.37
-2.03
-2.57
-2.99
-3.29
-3.50
-3.61
-3.65
-3.68
-3.82
-4.19
-4.86
-5.77
-6.81
-7.80
-8.55
-8.94
-8.89
-8.46
-7.71
-6.78
-5.85
-5.04
-4.48
-4.15
-3.98
-3.81
-3.50
-2.95
-2.17
-1.24
-0.31
0.53
1.21
1.72
2.10
2.41
2.70
3.02
3.38
3.79
4.20
4.56
4.82
5.00
5.14
5.29
5.46
5.63
5.74
5.71
5.50
5.17
4.79
4.44
4.15
3.94
3.76
3.62
3.50
3.38
3.22
2.98
2.63
2.23
1.89
1.70
1.72
1.91
2.14
2.30
2.32
2.22
2.08
1.98
1.90
1.79
1.59
1.27
0.87
0.46
0.11
-0.14
-0.30
-0.44
-0.60
-0.84
-1.18
-1.61
-2.08
-2.55
-2.98
-3.38
-3.74
-4.11
-4.50
-4.92
-5.39
-5.91
-6.47
-7.02
-7.46
-7.67
-7.52
-6.99
-6.16
-5.17
-4.19
-3.34
-2.63
-2.04
-1.50
-0.96
-0.43
0.08
0.55
1.00
1.47
2.00
2.56
3.06
3.42
3.59
3.58
3.50
3.48
3.62
3.90
4.25
4.51
4.58
4.41
4.05
3.63
3.27
3.07
3.05
3.16
3.30
3.38
3.36
3.27
3.14
3.03
2.90
2.68
2.36
2.00
1.73
1.70
1.93
2.28
2.52
2.46
2.06
1.45
0.84
0.37
0.07
-0.15
-0.36
-0.63
-0.92
-1.23
-1.57
-2.01
-2.59
-3.26
-3.94
-4.51
-4.97
-5.40
-5.94
-6.63
-7.42
-8.11
-8.53
-8.58
-8.30
-7.83
-7.28
-6.71
-6.06
-5.27
-4.30
-3.23
-2.18
-1.25
-0.50
0.11
0.64
1.11
1.50
1.72
1.76
1.68
1.65
1.90
2.54
3.51
4.62
5.57
6.14
6.23
5.93
5.41
4.82
4.28
3.86
3.55
3.38
3.36
3.46
3.63
3.79
3.86
3.80
3.63
3.42
3.25
3.16
3.15
3.19
3.22
3.18
3.05
2.83
2.57
2.32
2.10
1.93
1.77
1.62
1.45
1.23
0.95
0.59
0.15
-0.37
-0.94
-1.51
-1.98
-2.26
-2.32
-2.15
-1.87
-1.61
-1.57
-1.83
-2.41
-3.22
-4.10
-4.94
-5.66
-6.25
-6.73
-7.16
-7.58
-8.01
-8.45
-8.84
-9.08
-9.03
-8.59
-7.75
-6.62
-5.38
-4.26
-3.41
-2.84
-2.46
-2.13
-1.70
-1.14
-0.45
0.28
0.99
1.62
2.14
2.55
2.87
3.14
3.42
3.71
4.02
4.32
4.58
4.82
5.04
5.27
5.50
5.67
5.74
5.69
5.56
5.41
5.29
5.20
5.10
4.95
4.73
4.53
4.42
4.46
4.58
4.67
4.59
4.26
3.75
3.19
2.73
2.45
2.29
2.13
1.85
1.41
0.90
0.43
0.12
0.02
0.06
0.14
0.15
0.06
-0.15
-0.46
-0.87
-1.38
-1.96
-2.57
-3.12
-3.55
-3.83
-4.01
-4.15
-4.37
-4.74
-5.33
-6.15
-7.12
-8.08
-8.86
-9.28
-9.25
-8.79
-8.00
-7.01
-5.93
-4.81
-3.69
-2.63
-1.67
-0.89
-0.29
0.18
0.58
0.98
1.41
1.88
2.40
2.98
3.60
4.17
4.58
4.75
4.65
4.38
4.11
4.01
4.17
4.51
4.91
5.20
5.26
5.09
4.77
4.40
4.11
3.92
3.84
3.79
3.70
3.52
3.23
2.85
2.42
2.00
1.61
1.29
1.06
0.96
0.99
1.13
1.32
1.43
1.41
1.23
0.95
0.69
0.55
0.56
0.64
0.69
0.58
0.26
-0.25
-0.87
-1.50
-2.14
-2.80
-3.51
-4.26
-5.00
-5.65
-6.17
-6.60
-7.05
-7.65
-8.44
-9.33
-10.12
-10.57
-10.53
-9.99
-9.09
-8.03
-6.98
-5.97
-4.95
-3.85
-2.65
-1.45
-0.38
0.45
1.04
1.47
1.89
2.37
2.88
3.33
3.60
3.66
3.59
3.54
3.66
4.00
4.47
4.95
5.29
5.44
5.41
5.30
5.20
5.14
5.11
5.07
4.97
4.83
4.67
4.50
4.31
4.08
3.77
3.41
3.05
2.77
2.61
2.60
2.69
2.80
2.89
2.90
2.80
2.57
2.18
1.64
0.98
0.29
-0.36
-0.92
-1.36
-1.70
-1.98
-2.20
-2.36
-2.46
-2.51
-2.53
-2.57
-2.69
-2.95
-3.38
-3.99
-4.75
-5.64
-6.59
-7.54
-8.39
-9.01
-9.27
-9.12
-8.55
-7.69
-6.69
-5.68
-4.70
-3.71
-2.64
-1.47
-0.28
0.77
1.52
1.94
2.07
2.07
2.09
2.22
2.51
2.93
3.46
4.04
4.66
5.25
5.74
6.08
6.22
6.19
6.07
5.97
5.99
6.16
6.42
6.70
6.91
7.00
6.98
6.86
6.65
6.31
5.81
5.15
4.39
3.67
3.06
2.59
2.23
1.90
1.56
1.24
0.99
0.83
0.72
0.58
0.31
-0.12
-0.65
-1.20
-1.66
-2.00
-2.29
-2.59
-2.99
-3.49
-4.06
-4.61
-5.10
-5.53
-5.96
-6.42
-6.96
-7.55
-8.15
-8.75
-9.34
-9.94
-10.54
-11.01
-11.17
-10.84
-9.98
-8.67
-7.18
-5.75
-4.57
-3.67
-2.93
-2.20
-1.41
-0.53
0.38
1.26
2.04
2.70
3.25
3.68
4.01
4.29
4.57
4.90
5.29
5.69
6.03
6.21
6.20
6.04
5.78
5.52
5.29
5.11
4.93
4.73
4.50
4.26
4.04
3.88
3.79
3.77
3.77
3.80
3.83
3.90
3.99
4.09
4.14
4.10
3.92
3.62
3.24
2.83
2.41
1.97
1.46
0.83
0.06
-0.83
-1.79
-2.75
-3.69
-4.56
-5.32
-5.94
-6.37
-6.66
-6.92
-7.34
-8.10
-9.29
-10.78
-12.32
-13.52
-14.14
-14.09
-13.46
-12.47
-11.34
-10.23
-9.22
-8.40
-7.84
-7.63
-7.74
-8.04
-8.31
-8.34
-8.07
-7.59
-7.11
-6.82
-6.83
-7.04
-7.27
-7.29
-6.93
-6.13
-4.94
-3.47
-1.81
0.02
2.05
4.40
7.22
10.54
14.30
18.26
21.99
25.03
27.00
27.69
27.15
25.64
23.49
21.06
18.60
16.24
14.09
12.19
10.57
9.23
8.11
7.13
6.18
5.20
4.21
3.33
2.69
2.39
2.44
2.71
2.99
3.03
2.67
1.84
0.63
-0.82
-2.35
-3.86
-5.27
-6.56
-7.70
-8.68
-9.54
-10.37
-11.28
-12.31
-13.36
-14.20
-14.56
-14.24
-13.23
-11.69
-9.94
-8.26
-6.88
-5.84
-5.05
-4.38
-3.65
-2.75
-1.62
-0.33
1.01
2.27
3.34
4.19
4.87
5.46
6.02
6.54
6.97
7.19
7.17
6.91
6.52
6.13
5.80
5.51
5.19
4.76
4.19
3.61
3.16
2.98
3.11
3.48
3.92
4.28
4.45
4.41
4.24
4.03
3.87
3.79
3.73
3.57
3.20
2.55
1.63
0.51
-0.70
-1.92
-3.08
-4.15
-5.09
-5.83
-6.36
-6.73
-7.08
-7.62
-8.44
-9.44
-10.37
-10.91
-10.84
-10.14
-9.02
-7.76
-6.60
-5.61
-4.77
-3.98
-3.19
-2.39
-1.61
-0.85
-0.10
0.65
1.39
2.08
2.66
3.13
3.51
3.84
4.18
4.54
4.91
5.25
5.51
5.67
5.70
5.60
5.40
5.13
4.84
4.57
4.35
4.18
4.07
4.01
4.00
4.04
4.15
4.35
4.63
4.95
5.18
5.23
5.01
4.56
3.98
3.41
2.97
2.66
2.41
2.12
1.74
1.32
1.00
0.89
1.04
1.34
1.61
1.61
1.18
0.27
-1.06
-2.66
-4.33
-5.92
-7.31
-8.45
-9.32
-9.96
-10.43
-10.84
-11.28
-11.82
-12.51
-13.27
-13.96
-14.36
-14.30
-13.66
-12.45
-10.82
-8.98
-7.14
-5.48
-4.08
-2.98
-2.15
-1.52
-0.97
-0.34
0.49
1.56
2.76
3.90
4.80
5.34
5.57
5.62
5.68
5.86
6.20
6.62
7.02
7.31
7.45
7.45
7.34
7.18
6.99
6.80
6.64
6.48
6.32
6.17
5.99
5.79
5.52
5.20
4.84
4.53
4.34
4.26
4.23
4.10
3.73
3.09
2.27
1.46
0.89
0.67
0.76
0.99
1.14
1.05
0.65
0.01
-0.75
-1.47
-2.06
-2.50
-2.86
-3.26
-3.81
-4.49
-5.21
-5.81
-6.20
-6.39
-6.52
-6.81
-7.40
-8.30
-9.38
-10.47
-11.38
-11.98
-12.19
-11.94
-11.20
-10.01
-8.49
-6.84
-5.25
-3.86
-2.69
-1.67
-0.69
0.31
1.32
2.30
3.19
3.97
4.65
5.22
5.65
5.95
6.11
6.19
6.25
6.35
6.53
6.84
7.28
7.83
8.42
8.93
9.22
9.18
8.79
8.12
7.37
6.72
6.30
6.11
6.06
5.99
5.80
5.45
4.98
4.45
3.92
3.41
2.92
2.45
2.04
1.71
1.46
1.31
1.18
0.98
0.62
0.05
-0.70
-1.48
-2.12
-2.53
-2.72
-2.89
-3.24
-3.92
-4.90
-5.98
-6.90
-7.43
-7.55
-7.38
-7.18
-7.18
-7.54
-8.35
-9.60
-11.18
-12.88
-14.38
-15.33
-15.44
-14.61
-12.96
-10.79
-8.52
-6.51
-5.01
-4.04
-3.50
-3.16
-2.76
-2.08
-1.04
0.33
1.87
3.38
4.66
5.61
6.25
6.66
6.93
7.17
7.44
7.73
8.06
8.40
8.71
8.95
9.08
9.02
8.70
8.12
7.30
6.40
5.62
5.19
5.20
5.62
6.25
6.81
7.03
6.77
6.05
5.07
4.09
3.36
3.04
3.11
3.43
3.77
3.91
3.74
3.26
2.56
1.77
1.01
0.37
-0.10
-0.39
-0.56
-0.71
-0.97
-1.44
-2.14
-3.01
-3.93
-4.79
-5.54
-6.19
-6.77
-7.31
-7.85
-8.45
-9.16
-10.04
-11.07
-12.12
-12.95
-13.32
-13.07
-12.21
-10.90
-9.38
-7.85
-6.37
-4.92
-3.43
-1.90
-0.43
0.85
1.85
2.60
3.21
3.82
4.52
5.25
5.90
6.36
6.58
6.63
6.66
6.82
7.19
7.72
8.27
8.69
8.92
8.96
8.93
8.96
9.09
9.29
9.46
9.49
9.38
9.16
8.94
8.81
8.85
9.11
9.61
10.36
11.25
12.12
12.75
12.94
12.67
12.13
11.64
11.59
12.17
13.31
14.59
15.46
15.48
14.60
13.25
12.30
12.63
14.70
18.12
21.63
23.40
21.58
14.78
2.52
-14.66
-35.11
-56.25
-74.98
-88.24
-93.92
-91.46
-82.20
-68.96
-55.01
-42.95
-33.93
-27.58
-22.69
-18.08
-13.27
-8.48
-4.29
-1.10
1.20
3.06
4.97
7.06
9.06
10.53
11.13
10.85
10.07
9.23
8.66
8.37
8.12
7.56
6.50
4.98
3.32
1.99
1.40
1.78
2.97
4.53
5.83
6.33
5.83
4.49
2.82
1.37
0.52
0.36
0.76
1.48
2.36
3.28
4.18
4.90
5.27
5.14
4.52
3.60
2.65
1.94
1.54
1.38
1.33
1.29
1.24
1.23
1.24
1.17
0.91
0.45
-0.02
-0.24
0.01
0.70
1.52
2.02
1.81
0.78
-0.90
-2.85
-4.69
-6.15
-7.13
-7.62
-7.62
-7.17
-6.37
-5.36
-4.37
-3.56
-2.98
-2.44
-1.65
-0.30
1.73
4.28
6.99
9.39
11.12
12.04
12.17
11.69
10.77
9.55
8.16
6.73
5.39
4.28
3.49
3.07
3.06
3.49
4.35
5.51
6.61
7.15
6.59
4.68
1.72
-1.46
-3.68
-3.91
-1.69
2.65
8.11
13.49
17.80
20.51
21.60
21.32
20.00
17.96
15.57
13.30
11.67
11.05
11.49
12.63
13.97
15.14
16.15
17.30
18.90
20.85
22.51
22.92
21.26
17.22
11.25
4.29
-2.53
-8.24
-12.12
-13.72
-12.82
-9.47
-4.17
2.14
8.22
12.91
15.44
15.67
14.03
11.22
7.95
4.71
1.69
-1.10
-3.77
-6.35
-8.82
-11.11
-13.15
-14.95
-16.58
-18.14
-19.65
-21.01
-22.04
-22.54
-22.40
-21.69
-20.55
-19.20
-17.78
-16.35
-14.92
-13.51
-12.15
-10.95
-9.98
-9.29
-8.84
-8.53
-8.22
-7.83
-7.30
-6.70
-6.13
-5.75
-5.60
-5.68
-5.87
-6.00
-5.93
-5.63
-5.15
-4.63
-4.18
-3.90
-3.77
-3.76
-3.83
-3.95
-4.10
-4.29
-4.50
-4.70
-4.91
-5.14
-5.46
-5.94
-6.61
-7.44
-8.29
-8.99
-9.29
-9.03
-8.14
-6.72
-4.99
-3.24
-1.72
-0.54
0.31
0.98
1.61
2.31
3.14
4.07
5.03
5.95
6.81
7.56
8.19
8.69
9.07
9.37
9.64
9.92
10.24
10.56
10.84
11.03
11.07
10.93
10.63
10.21
9.75
9.33
8.97
8.65
8.35
8.07
7.80
7.56
7.30
6.94
6.35
5.50
4.48
3.48
2.75
2.43
2.48
2.75
2.98
3.01
2.76
2.31
1.75
1.21
0.77
0.47
0.31
0.26
0.25
0.17
-0.07
-0.56
-1.30
-2.24
-3.28
-4.29
-5.16
-5.80
-6.24
-6.57
-6.96
-7.58
-8.49
-9.58
-10.60
-11.19
-11.08
-10.18
-8.60
-6.64
-4.69
-3.07
-1.95
-1.36
-1.12
-1.01
-0.79
-0.29
0.51
1.52
2.53
3.34
3.83
4.01
4.01
4.01
4.12
4.35
4.61
4.77
4.78
4.73
4.78
5.02
5.47
5.97
6.30
6.30
5.96
5.43
4.91
4.52
4.27
4.03
3.68
3.18
2.61
2.12
1.78
1.58
1.39
1.06
0.55
-0.04
-0.55
-0.83
-0.90
-0.90
-1.07
-1.57
-2.41
-3.41
-4.34
-5.04
-5.49
-5.84
-6.27
-6.95
-7.91
-9.06
-10.25
-11.28
-12.03
-12.34
-12.12
-11.33
-10.00
-8.28
-6.38
-4.54
-2.96
-1.70
-0.75
0.01
0.70
1.45
2.32
3.27
4.17
4.84
5.17
5.16
4.98
4.84
4.93
5.26
5.71
6.08
6.27
6.28
6.26
6.30
6.42
6.51
6.44
6.15
5.71
5.25
4.96
4.88
4.98
5.14
5.23
5.14
4.83
4.32
3.70
3.08
2.55
2.15
1.82
1.48
1.01
0.39
-0.34
-1.05
-1.63
-2.03
-2.32
-2.62
-3.04
-3.59
-4.21
-4.77
-5.17
-5.41
-5.57
-5.82
-6.28
-6.98
-7.85
-8.76
-9.60
-10.36
-11.09
-11.83
-12.54
-13.04
-13.11
-12.55
-11.33
-9.62
-7.70
-5.86
-4.30
-3.04
-2.03
-1.15
-0.35
0.40
1.09
1.75
2.43
3.19
4.06
4.97
5.80
6.45
6.87
7.11
7.31
7.58
7.96
8.37
8.63
8.60
8.24
7.66
7.07
6.63
6.42
6.34
6.24
5.99
5.57
5.12
4.78
4.63
4.61
4.56
4.33
3.89
3.33
2.78
2.36
2.08
1.84
1.54
1.12
0.62
0.11
-0.34
-0.70
-1.00
-1.31
-1.72
-2.28
-3.00
-3.86
-4.74
-5.53
-6.12
-6.48
-6.72
-6.97
-7.43
-8.20
-9.27
-10.52
-11.73
-12.67
-13.10
-12.88
-11.97
-10.46
-8.54
-6.46
-4.49
-2.80
-1.46
-0.41
0.47
1.29
2.11
2.88
3.49
3.88
4.05
4.14
4.32
4.71
5.34
6.09
6.78
7.30
7.61
7.81
7.98
8.15
8.24
8.17
7.89
7.43
6.90
6.40
5.97
5.55
5.07
4.52
3.94
3.44
3.06
2.79
2.53
2.18
1.70
1.16
0.68
0.37
0.25
0.23
0.21
0.11
-0.10
-0.39
-0.72
-1.06
-1.42
-1.78
-2.17
-2.58
-3.06
-3.67
-4.43
-5.34
-6.29
-7.14
-7.72
-7.99
-8.06
-8.15
-8.56
-9.46
-10.82
-12.39
-13.76
-14.51
-14.39
-13.41
-11.82
-10.00
-8.29
-6.87
-5.68
-4.54
-3.15
-1.27
1.24
4.35
7.84
11.34
14.35
16.42
17.24
16.80
15.40
13.61
12.00
10.95
10.45
10.16
9.56
8.29
6.29
3.90
1.63
-0.02
-0.81
-0.83
-0.35
0.31
0.98
1.62
2.28
2.99
3.68
4.22
4.48
4.45
4.23
4.04
4.07
4.39
4.92
5.42
5.62
5.31
4.46
3.20
1.78
0.47
-0.56
-1.29
-1.78
-2.19
-2.65
-3.26
-4.02
-4.90
-5.84
-6.77
-7.67
-8.49
-9.22
-9.80
-10.22
-10.48
-10.65
-10.85
-11.19
-11.70
-12.36
-12.99
-13.39
-13.38
-12.89
-11.93
-10.63
-9.15
-7.63
-6.15
-4.72
-3.32
-1.95
-0.62
0.61
1.69
2.60
3.36
4.03
4.67
5.29
5.87
6.35
6.70
6.93
7.11
7.30
7.55
7.83
8.07
8.20
8.18
7.99
7.71
7.38
7.07
6.78
6.48
6.16
5.80
5.43
5.09
4.76
4.44
4.05
3.58
3.01
2.36
1.68
1.00
0.34
-0.27
-0.76
-1.08
-1.18
-1.05
-0.77
-0.43
-0.14
0.04
0.05
-0.09
-0.39
-0.83
-1.37
-1.97
-2.57
-3.14
-3.72
-4.34
-5.05
-5.81
-6.55
-7.16
-7.59
-7.91
-8.27
-8.84
-9.64
-10.51
-11.13
-11.16
-10.42
-9.03
-7.29
-5.56
-4.09
-2.91
-1.90
-0.94
0.01
0.90
1.58
1.97
2.09
2.04
1.98
2.05
2.30
2.71
3.20
3.67
4.04
4.28
4.40
4.46
4.55
4.73
5.03
5.40
5.74
5.97
6.02
5.89
5.61
5.27
4.95
4.70
4.52
4.39
4.28
4.15
3.99
3.80
3.58
3.35
3.09
2.80
2.45
2.00
1.46
0.83
0.12
-0.65
-1.45
-2.28
-3.09
-3.84
-4.52
-5.15
-5.85
-6.76
-7.94
-9.38
-10.90
-12.25
-13.16
-13.45
-13.03
-11.96
-10.39
-8.56
-6.70
-5.04
-3.69
-2.60
-1.63
-0.60
0.54
1.70
2.72
3.43
3.82
4.03
4.25
4.63
5.14
5.64
5.93
5.93
5.70
5.43
5.32
5.49
5.86
6.27
6.50
6.43
6.10
5.67
5.30
5.08
5.00
4.95
4.81
4.57
4.28
4.04
3.88
3.79
3.69
3.52
3.28
3.01
2.73
2.45
2.10
1.63
0.98
0.20
-0.64
-1.41
-2.03
-2.47
-2.80
-3.13
-3.57
-4.16
-4.84
-5.48
-6.00
-6.38
-6.72
-7.18
-7.89
-8.90
-10.08
-11.24
-12.13
-12.57
-12.48
-11.86
-10.79
-9.41
-7.85
-6.26
-4.73
-3.33
-2.08
-0.97
-0.02
0.78
1.43
2.00
2.57
3.21
3.95
4.72
5.42
5.92
6.18
6.24
6.21
6.19
6.26
6.44
6.70
6.96
7.12
7.14
6.97
6.66
6.25
5.84
5.47
5.18
4.98
4.86
4.84
4.88
4.96
5.00
4.93
4.72
4.42
4.11
3.88
3.77
3.69
3.53
3.16
2.53
1.71
0.80
-0.01
-0.63
-0.99
-1.10
-1.06
-0.96
-0.96
-1.16
-1.65
-2.41
-3.37
-4.34
-5.17
-5.74
-6.04
-6.19
-6.35
-6.69
-7.29
-8.13
-9.06
-9.88
-10.36
-10.35
-9.78
-8.72
-7.29
-5.71
-4.15
-2.76
-1.63
-0.77
-0.12
0.38
0.82
1.27
1.75
2.25
2.76
3.24
3.68
4.06
4.38
4.66
4.88
5.05
5.16
5.25
5.34
5.45
5.60
5.77
5.92
6.01
6.01
5.87
5.58
5.17
4.67
4.15
3.72
3.46
3.42
3.56
3.78
3.93
3.89
3.58
3.02
2.28
1.48
0.73
0.09
-0.38
-0.74
-1.04
-1.35
-1.72
-2.15
-2.61
-3.07
-3.54
-4.06
-4.68
-5.44
-6.33
-7.29
-8.27
-9.21
-10.11
-10.95
-11.67
-12.18
-12.32
-11.99
-11.13
-9.82
-8.23
-6.58
-5.07
-3.78
-2.73
-1.83
-0.98
-0.12
0.78
1.68
2.55
3.31
3.90
4.29
4.48
4.53
4.53
4.57
4.71
4.97
5.32
5.72
6.09
6.39
6.58
6.65
6.59
6.41
6.14
5.88
5.70
5.67
5.74
5.80
5.69
5.33
4.71
3.97
3.26
2.72
2.42
2.31
2.31
2.37
2.44
2.48
2.45
2.25
1.83
1.20
0.42
-0.38
-1.13
-1.79
-2.38
-2.97
-3.56
-4.12
-4.64
-5.08
-5.49
-5.94
-6.48
-7.14
-7.90
-8.71
-9.45
-10.00
-10.22
-9.99
-9.31
-8.25
-6.98
-5.67
-4.45
-3.34
-2.33
-1.39
-0.51
0.25
0.87
1.35
1.79
2.25
2.77
3.36
3.96
4.49
4.93
5.26
5.47
5.55
5.51
5.37
5.20
5.11
5.20
5.51
5.96
6.38
6.58
6.46
6.04
5.50
5.02
4.72
4.58
4.46
4.22
3.76
3.14
2.50
1.98
1.66
1.51
1.45
1.35
1.17
0.91
0.63
0.35
0.08
-0.21
-0.60
-1.14
-1.85
-2.71
-3.65
-4.57
-5.34
-5.87
-6.08
-6.00
-5.77
-5.53
-5.47
-5.69
-6.23
-7.03
-7.98
-8.94
-9.79
-10.40
-10.63
-10.39
-9.67
-8.51
-7.08
-5.57
-4.17
-2.97
-1.97
-1.11
-0.26
0.68
1.72
2.82
3.87
4.74
5.34
5.66
5.79
5.82
5.87
5.98
6.13
6.25
6.29
6.27
6.25
6.29
6.37
6.47
6.48
6.36
6.17
5.98
5.87
5.87
5.91
5.88
5.68
5.29
4.79
4.28
3.91
3.75
3.80
3.96
4.08
3.97
3.48
2.59
1.38
0.08
-1.08
-1.90
-2.31
-2.40
-2.35
-2.37
-2.59
-3.04
-3.67
-4.37
-5.02
-5.58
-6.02
-6.34
-6.59
-6.79
-7.03
-7.42
-8.05
-8.94
-10.01
-11.03
-11.70
-11.80
-11.22
-10.06
-8.55
-6.96
-5.47
-4.18
-3.07
-2.08
-1.15
-0.23
0.70
1.69
2.71
3.69
4.50
4.99
5.09
4.82
4.30
3.72
3.25
3.00
3.01
3.27
3.71
4.27
4.84
5.33
5.64
5.71
5.56
5.23
4.81
4.37
3.96
3.63
3.40
3.29
3.25
3.21
3.07
2.76
2.28
1.70
1.12
0.65
0.39
0.32
0.42
0.61
0.82
0.98
1.01
0.87
0.54
0.05
-0.49
-0.95
-1.24
-1.30
-1.18
-0.99
-0.87
-0.97
-1.34
-1.96
-2.71
-3.49
-4.18
-4.76
-5.26
-5.78
-6.40
-7.15
-7.98
-8.76
-9.34
-9.56
-9.33
-8.64
-7.54
-6.17
-4.69
-3.31
-2.16
-1.31
-0.68
-0.15
0.44
1.18
2.01
2.81
3.41
3.69
3.63
3.31
2.86
2.41
2.07
1.90
1.95
2.26
2.85
3.65
4.57
5.44
6.08
6.38
6.31
5.95
5.47
5.06
4.83
4.80
4.86
4.87
4.74
4.48
4.19
3.95
3.76
3.56
3.26
2.83
2.31
1.81
1.42
1.10
0.75
0.21
-0.63
-1.71
-2.91
-4.02
-4.87
-5.40
-5.66
-5.76
-5.84
-6.01
-6.31
-6.75
-7.32
-8.06
-8.97
-10.03
-11.10
-11.96
-12.35
-12.09
-11.16
-9.77
-8.24
-6.86
-5.78
-4.92
-4.11
-3.17
-2.03
-0.77
0.48
1.54
2.35
2.91
3.30
3.66
4.11
4.75
5.58
6.51
7.35
7.89
8.01
7.72
7.19
6.62
6.23
6.08
6.10
6.17
6.17
6.07
5.89
5.66
5.42
5.17
4.90
4.63
4.36
4.09
3.83
3.54
3.21
2.82
2.39
1.96
1.57
1.19
0.81
0.41
-0.01
-0.40
-0.73
-0.95
-1.06
-1.13
-1.23
-1.43
-1.72
-2.09
-2.49
-2.89
-3.27
-3.63
-4.00
-4.39
-4.88
-5.50
-6.31
-7.30
-8.34
-9.22
-9.68
-9.51
-8.64
-7.20
-5.46
-3.74
-2.30
-1.22
-0.43
0.24
0.96
1.83
2.81
3.80
4.67
5.35
5.85
6.22
6.57
6.94
7.30
7.54
7.59
7.44
7.17
6.90
6.65
6.34
5.78
4.85
3.63
2.37
1.44
1.14
1.49
2.25
3.02
3.45
3.39
2.94
2.30
1.67
1.18
0.80
0.50
0.25
0.07
0.01
0.11
0.34
0.63
0.85
0.90
0.74
0.38
-0.08
-0.53
-0.90
-1.14
-1.26
-1.30
-1.35
-1.47
-1.74
-2.19
-2.85
-3.72
-4.76
-5.87
-6.94
-7.84
-8.49
-8.83
-8.85
-8.59
-8.09
-7.38
-6.48
-5.42
-4.29
-3.21
-2.31
-1.67
-1.26
-0.97
-0.65
-0.19
0.41
1.08
1.70
2.17
2.44
2.56
2.61
2.68
2.83
3.05
3.33
3.63
3.93
4.23
4.53
4.81
5.03
5.15
5.16
5.09
4.98
4.90
4.87
4.86
4.83
4.70
4.46
4.10
3.68
3.23
2.82
2.48
2.21
1.99
1.73
1.36
0.84
0.23
-0.38
-0.87
-1.19
-1.35
-1.43
-1.52
-1.69
-1.98
-2.40
-2.94
-3.58
-4.28
-4.95
-5.50
-5.86
-6.00
-6.02
-6.09
-6.42
-7.11
-8.14
-9.31
-10.30
-10.80
-10.63
-9.76
-8.38
-6.74
-5.12
-3.74
-2.71
-2.05
-1.71
-1.57
-1.47
-1.27
-0.83
-0.13
0.77
1.74
2.58
3.16
3.42
3.42
3.32
3.28
3.41
3.71
4.09
4.42
4.59
4.61
4.54
4.48
4.51
4.62
4.73
4.77
4.65
4.37
3.96
3.51
3.09
2.72
2.44
2.22
2.08
1.99
1.96
1.95
1.95
1.92
1.82
1.63
1.32
0.88
0.31
-0.36
-1.08
-1.77
-2.41
-2.98
-3.52
-4.07
-4.67
-5.33
-6.06
-6.85
-7.69
-8.52
-9.22
-9.64
-9.63
-9.09
-8.08
-6.75
-5.36
-4.10
-3.09
-2.35
-1.81
-1.35
-0.88
-0.29
0.47
1.42
2.50
3.56
4.43
4.97
5.15
5.01
4.70
4.35
4.11
4.06
4.22
4.57
5.02
5.41
5.55
5.32
4.72
3.93
3.20
2.78
2.76
3.03
3.40
3.67
3.74
3.66
3.56
3.54
3.64
3.76
3.76
3.55
3.10
2.50
1.92
1.50
1.28
1.22
1.20
1.08
0.79
0.33
-0.26
-0.92
-1.59
-2.24
-2.84
-3.36
-3.76
-4.07
-4.33
-4.63
-5.03
-5.55
-6.19
-6.94
-7.77
-8.65
-9.48
-10.09
-10.28
-9.90
-8.94
-7.57
-6.12
-4.88
-4.04
-3.58
-3.31
-3.02
-2.54
-1.88
-1.11
-0.31
0.47
1.25
2.05
2.83
3.50
3.89
3.94
3.66
3.23
2.89
2.82
3.02
3.33
3.49
3.27
2.61
1.67
0.76
0.15
0.03
0.34
0.91
1.51
1.98
2.28
2.45
2.55
2.61
2.60
2.49
2.27
2.00
1.76
1.64
1.66
1.72
1.67
1.40
0.90
0.27
-0.32
-0.75
-1.00
-1.16
-1.39
-1.81
-2.44
-3.19
-3.95
-4.62
-5.21
-5.82
-6.53
-7.37
-8.23
-8.87
-9.07
-8.67
-7.70
-6.33
-4.83
-3.40
-2.19
-1.22
-0.48
0.10
0.55
0.93
1.30
1.73
2.23
2.78
3.30
3.71
3.94
4.00
3.92
3.78
3.68
3.68
3.85
4.21
4.72
5.25
5.64
5.78
5.60
5.17
4.64
4.16
3.85
3.73
3.77
3.89
3.99
4.00
3.86
3.56
3.14
2.69
2.30
2.03
1.85
1.70
1.52
1.28
1.00
0.70
0.36
-0.07
-0.64
-1.37
-2.22
-3.11
-3.92
-4.57
-4.99
-5.18
-5.22
-5.24
-5.43
-5.96
-6.89
-8.15
-9.49
-10.61
-11.21
-11.08
-10.22
-8.74
-6.91
-5.00
-3.28
-1.94
-1.04
-0.55
-0.38
-0.38
-0.42
-0.37
-0.13
0.33
0.98
1.75
2.52
3.23
3.84
4.31
4.63
4.79
4.81
4.73
4.64
4.62
4.70
4.83
4.94
5.00
4.98
4.92
4.83
4.69
4.45
4.08
3.59
3.06
2.58
2.23
2.03
1.94
1.90
1.86
1.77
1.58
1.27
0.79
0.13
-0.63
-1.38
-1.97
-2.28
-2.29
-2.09
-1.87
-1.84
-2.17
-2.92
-4.03
-5.37
-6.71
-7.81
-8.48
-8.55
-8.00
-6.92
-5.51
-4.00
-2.66
-1.62
-0.95
-0.56
-0.29
-0.02
0.34
0.81
1.32
1.79
2.22
2.65
3.15
3.75
4.39
4.91
5.18
5.12
4.78
4.34
3.99
3.85
3.91
4.06
4.16
4.14
4.04
3.90
3.78
3.63
3.38
2.93
2.30
1.60
1.00
0.60
0.40
0.27
0.03
-0.42
-1.10
-1.94
-2.80
-3.59
-4.22
-4.67
-4.97
-5.18
-5.36
-5.55
-5.76
-5.90
-5.86
-5.55
-4.94
-4.09
-3.12
-2.17
-1.34
-0.67
-0.14
0.32
0.74
1.17
1.59
1.97
2.29
2.57
2.87
3.24
3.69
4.18
4.62
4.92
5.06
5.09
5.11
5.17
5.28
5.40
5.45
5.35
5.12
4.77
4.35
3.88
3.37
2.83
2.27
1.75
1.30
0.97
0.74
0.56
0.33
-0.01
-0.52
-1.17
-1.89
-2.61
-3.31
-4.02
-4.82
-5.78
-6.86
-7.90
-8.63
-8.84
-8.43
-7.50
-6.28
-5.05
-3.95
-3.01
-2.10
-1.12
-0.05
1.04
2.02
2.78
3.33
3.73
4.05
4.34
4.58
4.77
4.88
4.96
5.05
5.18
5.35
5.53
5.67
5.74
5.74
5.68
5.55
5.37
5.15
4.93
4.74
4.64
4.61
4.62
4.61
4.53
4.36
4.12
3.84
3.54
3.22
2.88
2.51
2.15
1.82
1.53
1.29
1.08
0.89
0.68
0.46
0.18
-0.17
-0.61
-1.14
-1.70
-2.21
-2.61
-2.88
-3.08
-3.32
-3.69
-4.21
-4.85
-5.54
-6.25
-7.03
-7.91
-8.86
-9.69
-10.15
-9.97
-9.05
-7.52
-5.73
-4.07
-2.82
-2.03
-1.58
-1.23
-0.82
-0.28
0.32
0.90
1.43
1.92
2.42
2.98
3.53
4.02
4.38
4.62
4.74
4.82
4.90
5.00
5.13
5.27
5.37
5.37
5.21
4.87
4.39
3.89
3.49
3.28
3.24
3.28
3.27
3.15
2.92
2.61
2.27
1.88
1.42
0.90
0.39
-0.02
-0.27
-0.36
-0.43
-0.66
-1.14
-1.87
-2.68
-3.41
-3.92
-4.23
-4.42
-4.59
-4.81
-5.05
-5.28
-5.52
-5.89
-6.51
-7.45
-8.63
-9.77
-10.55
-10.71
-10.18
-9.09
-7.71
-6.33
-5.15
-4.21
-3.45
-2.74
-1.99
-1.16
-0.27
0.61
1.42
2.10
2.65
3.09
3.46
3.80
4.15
4.49
4.79
5.03
5.22
5.39
5.56
5.72
5.83
5.84
5.70
5.44
5.13
4.86
4.71
4.67
4.69
4.68
4.60
4.43
4.24
4.08
3.96
3.85
3.66
3.35
2.92
2.45
2.05
1.75
1.55
1.39
1.20
0.98
0.74
0.54
0.38
0.24
0.06
-0.21
-0.61
-1.11
-1.71
-2.38
-3.09
-3.75
-4.27
-4.61
-4.75
-4.81
-4.96
-5.38
-6.12
-7.10
-8.11
-8.91
-9.34
-9.33
-8.91
-8.16
-7.14
-5.92
-4.56
-3.16
-1.86
-0.80
-0.06
0.33
0.44
0.38
0.27
0.21
0.26
0.49
0.92
1.55
2.32
3.13
3.80
4.21
4.30
4.14
3.88
3.69
3.63
3.67
3.71
3.67
3.56
3.48
3.50
3.65
3.83
3.87
3.68
3.25
2.71
2.23
1.93
1.82
1.82
1.82
1.72
1.49
1.17
0.79
0.36
-0.11
-0.63
-1.12
-1.50
-1.67
-1.61
-1.41
-1.22
-1.25
-1.61
-2.32
-3.31
-4.42
-5.46
-6.23
-6.55
-6.31
-5.51
-4.29
-2.91
-1.62
-0.59
0.16
0.82
1.67
2.97
4.85
7.20
9.72
12.03
13.90
15.37
16.76
18.45
20.53
22.59
23.77
23.10
19.92
14.05
5.79
-4.43
-16.22
-29.10
-42.24
-54.16
-62.96
-66.94
-65.37
-58.87
-49.13
-38.13
-27.32
-17.29
-7.99
0.67
8.37
14.38
18.08
19.37
18.91
17.80
17.03
17.07
17.77
18.61
19.11
19.07
18.61
18.00
17.45
16.96
16.29
15.01
12.66
8.93
3.82
-2.24
-8.41
-13.64
-16.99
-17.99
-16.74
-13.84
-10.09
-6.29
-3.10
-1.02
-0.41
-1.41
-3.76
-6.80
-9.60
-11.35
-11.69
-10.87
-9.51
-8.10
-6.55
-4.19
-0.23
5.59
12.47
18.75
22.47
22.30
18.13
11.10
3.09
-4.02
-9.01
-11.44
-11.47
-9.43
-5.44
0.54
8.47
17.83
27.43
35.61
40.78
41.90
38.89
32.63
24.67
16.75
10.41
6.68
5.89
7.72
11.29
15.40
18.87
20.81
20.77
18.76
15.04
9.93
3.71
-3.29
-10.63
-17.73
-23.98
-28.86
-32.08
-33.62
-33.67
-32.55
-30.69
-28.51
-26.40
-24.58
-23.11
-21.80
-20.32
-18.32
-15.46
-11.56
-6.52
-0.43
6.49
13.89
21.29
28.23
34.46
40.11
45.65
51.67
58.36
65.22
70.96
73.93
72.84
67.29
58.03
46.62
34.86
24.15
15.20
8.07
2.45
-2.11
-6.09
-9.90
-13.90
-18.34
-23.21
-28.24
-32.97
-36.90
-39.67
-41.12
-41.34
-40.54
-39.05
-37.26
-35.59
-34.34
-33.65
-33.38
-33.16
-32.58
-31.37
-29.55
-27.38
-25.27
-23.50
-22.18
-21.18
-20.29
-19.34
-18.27
-17.15
-16.11
-15.23
-14.59
-14.18
-13.99
-13.93
-13.88
-13.63
-13.01
-11.91
-10.35
-8.51
-6.64
-4.95
-3.56
-2.46
-1.57
-0.77
0.00
0.79
1.56
2.33
3.11
3.95
4.90
5.91
6.88
7.64
8.07
8.16
8.05
7.98
8.15
8.61
9.19
9.60
9.58
9.03
8.08
7.02
6.13
5.59
5.41
5.50
5.67
5.79
5.75
5.55
5.20
4.78
4.37
4.03
3.81
3.69
3.63
3.60
3.55
3.45
3.28
2.99
2.54
1.96
1.31
0.69
0.21
-0.08
-0.23
-0.36
-0.60
-1.03
-1.65
-2.38
-3.11
-3.78
-4.40
-5.04
-5.78
-6.68
-7.67
-8.60
-9.29
-9.56
-9.30
-8.53
-7.34
-5.89
-4.38
-2.98
-1.81
-0.87
-0.10
0.61
1.34
2.13
2.98
3.82
4.60
5.27
5.78
6.12
6.26
6.24
6.11
6.00
6.02
6.25
6.70
7.27
7.83
8.24
8.39
8.27
7.92
7.41
6.81
6.20
5.61
5.11
4.72
4.48
4.35
4.25
4.09
3.82
3.45
3.04
2.68
2.42
2.23
2.05
1.80
1.43
0.94
0.37
-0.26
-0.90
-1.55
-2.19
-2.81
-3.41
-4.01
-4.64
-5.35
-6.11
-6.81
-7.28
-7.35
-6.92
-6.03
-4.85
-3.62
-2.54
-1.69
-1.03
-0.45
0.21
1.01
1.92
2.89
3.81
4.60
5.24
5.73
6.09
6.32
6.43
6.39
6.21
5.92
5.58
5.30
5.11
5.02
4.97
4.92
4.83
4.74
4.67
4.64
4.65
4.62
4.48
4.19
3.79
3.38
3.09
2.97
3.03
3.17
3.27
3.27
3.19
3.05
2.88
2.64
2.23
1.61
0.83
0.05
-0.52
-0.73
-0.59
-0.31
-0.14
-0.30
-0.82
-1.61
-2.45
-3.18
-3.73
-4.14
-4.52
-4.95
-5.53
-6.29
-7.20
-8.18
-9.08
-9.71
-9.89
-9.56
-8.80
-7.79
-6.74
-5.79
-4.92
-4.06
-3.09
-1.98
-0.81
0.29
1.18
1.82
2.25
2.55
2.81
3.05
3.30
3.54
3.79
4.08
4.43
4.81
5.15
5.39
5.47
5.38
5.18
4.93
4.72
4.60
4.57
4.61
4.66
4.65
4.56
4.37
4.12
3.82
3.51
3.19
2.86
2.53
2.21
1.94
1.73
1.55
1.34
1.04
0.61
0.09
-0.41
-0.76
-0.89
-0.84
-0.73
-0.78
-1.13
-1.86
-2.86
-3.91
-4.80
-5.42
-5.82
-6.15
-6.57
-7.14
-7.78
-8.29
-8.50
-8.35
-7.88
-7.21
-6.43
-5.57
-4.58
-3.45
-2.21
-0.97
0.13
1.03
1.72
2.26
2.72
3.11
3.42
3.62
3.71
3.74
3.78
3.91
4.15
4.45
4.74
4.91
4.91
4.75
4.50
4.27
4.12
4.09
4.11
4.10
4.00
3.83
3.64
3.47
3.32
3.11
2.79
2.37
1.93
1.60
1.44
1.45
1.51
1.53
1.43
1.24
0.98
0.68
0.33
-0.06
-0.45
-0.77
-0.95
-1.00
-1.00
-1.12
-1.45
-2.01
-2.72
-3.43
-4.06
-4.57
-5.01
-5.42
-5.81
-6.15
-6.43
-6.66
-6.89
-7.22
-7.74
-8.43
-9.18
-9.73
-9.81
-9.24
-8.06
-6.51
-4.96
-3.71
-2.86
-2.30
-1.81
-1.21
-0.48
0.27
0.91
1.40
1.80
2.21
2.66
3.06
3.30
3.32
3.17
3.02
3.03
3.24
3.59
3.97
4.26
4.45
4.56
4.63
4.66
4.63
4.50
4.30
4.06
3.81
3.60
3.40
3.22
3.04
2.87
2.73
2.61
2.52
2.43
2.28
2.05
1.72
1.32
0.89
0.52
0.27
0.15
0.09
-0.01
-0.28
-0.77
-1.41
-2.05
-2.56
-2.84
-2.92
-2.92
-2.99
-3.24
-3.68
-4.30
-5.03
-5.83
-6.64
-7.41
-8.02
-8.34
-8.27
-7.81
-7.02
-6.03
-4.98
-3.96
-3.01
-2.17
-1.45
-0.86
-0.38
0.07
0.58
1.23
1.98
2.72
3.30
3.62
3.68
3.59
3.49
3.50
3.67
3.97
4.31
4.61
4.79
4.82
4.74
4.58
4.39
4.19
3.98
3.76
3.55
3.36
3.22
3.13
3.08
3.00
2.85
2.58
2.23
1.88
1.60
1.46
1.47
1.60
1.78
1.95
2.02
1.91
1.61
1.12
0.52
-0.14
-0.78
-1.36
-1.83
-2.21
-2.53
-2.87
-3.29
-3.80
-4.39
-4.96
-5.44
-5.79
-6.06
-6.35
-6.76
-7.33
-7.95
-8.48
-8.75
-8.63
-8.09
-7.17
-6.01
-4.73
-3.50
-2.43
-1.60
-1.04
-0.68
-0.42
-0.13
0.31
0.94
1.70
2.47
3.08
3.43
3.51
3.42
3.33
3.39
3.65
4.11
4.66
5.17
5.55
5.74
5.75
5.58
5.29
4.90
4.49
4.11
3.84
3.68
3.61
3.58
3.49
3.29
2.98
2.61
2.26
1.99
1.85
1.81
1.81
1.76
1.62
1.34
0.95
0.47
-0.07
-0.57
-1.01
-1.34
-1.61
-1.89
-2.28
-2.81
-3.46
-4.10
-4.61
-4.93
-5.12
-5.32
-5.71
-6.36
-7.19
-7.98
-8.49
-8.57
-8.21
-7.52
-6.68
-5.84
-5.06
-4.32
-3.59
-2.81
-1.96
-1.03
-0.06
0.88
1.70
2.31
2.67
2.76
2.67
2.52
2.43
2.51
2.78
3.23
3.79
4.35
4.83
5.19
5.40
5.44
5.33
5.04
4.56
3.91
3.20
2.57
2.19
2.14
2.38
2.75
3.05
3.13
2.95
2.62
2.22
1.85
1.48
1.07
0.58
0.05
-0.41
-0.74
-0.91
-1.01
-1.16
-1.41
-1.77
-2.15
-2.48
-2.72
-2.88
-2.99
-3.08
-3.19
-3.36
-3.65
-4.13
-4.83
-5.75
-6.81
-7.91
-8.92
-9.76
-10.36
-10.70
-10.73
-10.43
-9.77
-8.75
-7.47
-6.05
-4.66
-3.45
-2.48
-1.73
-1.09
-0.50
0.07
0.59
1.04
1.43
1.83
2.35
3.01
3.77
4.49
5.03
5.29
5.31
5.22
5.17
5.25
5.47
5.75
5.98
6.11
6.11
6.02
5.86
5.67
5.46
5.22
4.99
4.78
4.62
4.51
4.43
4.36
4.28
4.18
4.07
3.93
3.76
3.54
3.26
2.96
2.70
2.53
2.47
2.51
2.56
2.55
2.37
1.99
1.44
0.79
0.20
-0.23
-0.43
-0.47
-0.47
-0.60
-0.96
-1.54
-2.24
-2.92
-3.46
-3.83
-4.09
-4.36
-4.75
-5.33
-6.08
-6.95
-7.83
-8.59
-9.13
-9.39
-9.31
-8.89
-8.17
-7.20
-6.11
-4.98
-3.91
-2.98
-2.19
-1.50
-0.86
-0.17
0.61
1.46
2.26
2.88
3.21
3.27
3.19
3.15
3.32
3.72
4.26
4.80
5.18
5.35
5.34
5.25
5.15
5.08
5.04
4.98
4.87
4.72
4.56
4.42
4.29
4.16
3.94
3.61
3.17
2.70
2.30
2.07
2.01
2.09
2.21
2.30
2.32
2.28
2.16
1.97
1.66
1.23
0.68
0.11
-0.39
-0.77
-1.05
-1.27
-1.53
-1.88
-2.33
-2.84
-3.37
-3.85
-4.27
-4.63
-5.01
-5.48
-6.14
-7.03
-8.12
-9.28
-10.30
-10.95
-11.02
-10.47
-9.41
-8.08
-6.73
-5.58
-4.68
-4.01
-3.44
-2.91
-2.37
-1.82
-1.24
-0.57
0.26
1.25
2.34
3.35
4.11
4.52
4.61
4.57
4.59
4.81
5.23
5.72
6.13
6.33
6.33
6.19
6.01
5.82
5.62
5.35
4.98
4.56
4.18
3.94
3.85
3.83
3.76
3.59
3.34
3.11
2.98
2.99
3.05
3.07
2.96
2.72
2.43
2.17
2.02
1.94
1.89
1.79
1.60
1.34
1.03
0.73
0.43
0.14
-0.16
-0.51
-0.92
-1.43
-2.05
-2.76
-3.52
-4.26
-4.91
-5.45
-5.90
-6.32
-6.78
-7.33
-7.95
-8.53
-8.94
-9.01
-8.69
-8.01
-7.12
-6.22
-5.47
-4.91
-4.45
-3.94
-3.28
-2.43
-1.47
-0.52
0.33
1.03
1.58
2.02
2.36
2.60
2.75
2.82
2.90
3.04
3.29
3.63
3.99
4.29
4.45
4.43
4.26
3.99
3.70
3.46
3.30
3.21
3.16
3.09
2.94
2.74
2.51
2.28
2.06
1.81
1.52
1.17
0.81
0.50
0.29
0.15
0.04
-0.12
-0.38
-0.73
-1.13
-1.52
-1.92
-2.34
-2.81
-3.34
-3.92
-4.52
-5.14
-5.78
-6.46
-7.16
-7.84
-8.43
-8.89
-9.16
-9.20
-9.00
-8.52
-7.75
-6.69
-5.39
-3.97
-2.57
-1.33
-0.35
0.39
0.93
1.36
1.76
2.17
2.61
3.07
3.56
4.04
4.48
4.83
5.10
5.30
5.51
5.78
6.07
6.34
6.46
6.40
6.16
5.85
5.58
5.44
5.43
5.46
5.46
5.35
5.14
4.86
4.54
4.20
3.84
3.46
3.08
2.74
2.48
2.32
2.28
2.29
2.30
2.25
2.07
1.76
1.37
0.95
0.56
0.21
-0.13
-0.56
-1.14
-1.89
-2.73
-3.49
-4.04
-4.32
-4.36
-4.35
-4.50
-4.99
-5.86
-7.05
-8.36
-9.57
-10.50
-11.03
-11.13
-10.84
-10.20
-9.27
-8.10
-6.79
-5.43
-4.14
-3.00
-2.03
-1.16
-0.34
0.50
1.36
2.19
2.91
3.45
3.79
4.00
4.18
4.42
4.74
5.13
5.55
5.93
6.23
6.43
6.48
6.40
6.21
5.96
5.70
5.47
5.25
5.00
4.70
4.36
4.09
3.96
4.03
4.25
4.51
4.67
4.66
4.50
4.25
3.97
3.68
3.36
3.01
2.68
2.45
2.36
2.36
2.32
2.08
1.54
0.73
-0.20
-1.06
-1.75
-2.26
-2.66
-3.04
-3.42
-3.83
-4.27
-4.79
-5.49
-6.39
-7.46
-8.55
-9.47
-10.03
-10.14
-9.80
-9.09
-8.10
-6.95
-5.70
-4.43
-3.17
-1.95
-0.79
0.26
1.17
1.89
2.43
2.81
3.06
3.24
3.32
3.28
3.12
2.91
2.79
2.94
3.44
4.24
5.14
5.86
6.16
6.00
5.53
4.97
4.58
4.44
4.50
4.63
4.68
4.61
4.44
4.26
4.10
3.96
3.80
3.58
3.33
3.09
2.91
2.79
2.68
2.50
2.24
1.91
1.59
1.30
1.07
0.86
0.63
0.34
0.02
-0.32
-0.66
-1.03
-1.46
-1.98
-2.56
-3.14
-3.62
-3.96
-4.15
-4.28
-4.45
-4.75
-5.20
-5.75
-6.30
-6.84
-7.42
-8.15
-9.11
-10.25
-11.38
-12.16
-12.34
-11.78
-10.56
-8.94
-7.21
-5.60
-4.24
-3.16
-2.33
-1.68
-1.13
-0.57
0.11
0.97
2.02
3.17
4.27
5.17
5.77
6.02
5.99
5.80
5.61
5.53
5.63
5.87
6.15
6.35
6.38
6.23
5.95
5.64
5.40
5.26
5.22
5.23
5.27
5.31
5.35
5.37
5.35
5.23
4.96
4.56
4.07
3.59
3.21
3.01
2.98
3.07
3.17
3.15
2.95
2.54
2.00
1.43
0.92
0.52
0.19
-0.14
-0.53
-0.99
-1.47
-1.91
-2.26
-2.54
-2.84
-3.23
-3.77
-4.42
-5.11
-5.77
-6.38
-6.98
-7.67
-8.50
-9.41
-10.22
-10.68
-10.57
-9.82
-8.57
-7.09
-5.67
-4.54
-3.74
-3.19
-2.70
-2.13
-1.41
-0.55
0.38
1.31
2.20
3.02
3.73
4.28
4.58
4.61
4.43
4.21
4.16
4.42
5.00
5.72
6.32
6.60
6.49
6.11
5.63
5.23
4.99
4.88
4.82
4.75
4.63
4.46
4.25
3.99
3.65
3.22
2.73
2.23
1.77
1.38
1.11
0.95
0.86
0.79
0.64
0.33
-0.15
-0.74
-1.33
-1.79
-2.08
-2.24
-2.38
-2.64
-3.05
-3.58
-4.15
-4.66
-5.09
-5.49
-5.93
-6.51
-7.26
-8.18
-9.17
-10.12
-10.90
-11.40
-11.48
-11.11
-10.31
-9.19
-7.91
-6.64
-5.50
-4.54
-3.71
-2.95
-2.18
-1.39
-0.58
0.19
0.92
1.62
2.33
3.07
3.83
4.54
5.14
5.60
5.94
6.18
6.34
6.43
6.42
6.32
6.16
5.99
5.87
5.81
5.80
5.77
5.68
5.49
5.21
4.92
4.70
4.60
4.59
4.58
4.47
4.16
3.72
3.25
2.91
2.76
2.74
2.70
2.50
2.12
1.65
1.26
1.05
1.00
1.00
0.87
0.53
-0.03
-0.72
-1.43
-2.11
-2.73
-3.31
-3.80
-4.19
-4.44
-4.58
-4.68
-4.84
-5.14
-5.60
-6.24
-7.04
-7.98
-8.99
-9.97
-10.77
-11.24
-11.28
-10.85
-10.00
-8.81
-7.36
-5.76
-4.16
-2.75
-1.64
-0.88
-0.34
0.16
0.76
1.48
2.22
2.78
3.07
3.11
3.07
3.10
3.32
3.71
4.16
4.58
4.92
5.20
5.47
5.72
5.92
5.99
5.89
5.65
5.33
4.99
4.69
4.42
4.15
3.87
3.57
3.26
2.95
2.62
2.25
1.84
1.40
1.00
0.70
0.49
0.33
0.14
-0.17
-0.65
-1.27
-1.96
-2.63
-3.16
-3.51
-3.70
-3.83
-4.03
-4.39
-4.98
-5.78
-6.74
-7.78
-8.81
-9.74
-10.49
-10.98
-11.11
-10.83
-10.13
-9.05
-7.69
-6.23
-4.82
-3.56
-2.49
-1.61
-0.85
-0.17
0.48
1.15
1.86
2.67
3.57
4.53
5.42
6.12
6.50
6.56
6.39
6.12
5.92
5.90
6.08
6.41
6.80
7.12
7.29
7.28
7.09
6.75
6.30
5.78
5.26
4.82
4.50
4.34
4.33
4.39
4.42
4.34
4.07
3.59
2.94
2.21
1.57
1.14
0.98
1.08
1.30
1.45
1.39
1.12
0.71
0.26
-0.14
-0.51
-0.88
-1.31
-1.82
-2.36
-2.91
-3.43
-3.94
-4.48
-5.04
-5.57
-6.03
-6.46
-6.95
-7.62
-8.56
-9.68
-10.77
-11.54
-11.75
-11.26
-10.13
-8.54
-6.75
-5.02
-3.53
-2.35
-1.45
-0.74
-0.11
0.55
1.28
2.07
2.90
3.72
4.48
5.12
5.56
5.75
5.68
5.45
5.20
5.10
5.22
5.52
5.89
6.21
6.41
6.46
6.39
6.19
5.90
5.52
5.12
4.79
4.56
4.45
4.35
4.18
3.87
3.45
3.02
2.68
2.48
2.35
2.22
2.00
1.69
1.34
1.02
0.78
0.60
0.41
0.13
-0.29
-0.85
-1.53
-2.28
-3.06
-3.80
-4.50
-5.16
-5.83
-6.53
-7.30
-8.13
-8.92
-9.59
-10.01
-10.12
-9.91
-9.38
-8.59
-7.55
-6.33
-5.00
-3.71
-2.56
-1.66
-0.97
-0.36
0.32
1.18
2.17
3.15
3.95
4.46
4.71
4.83
4.95
5.17
5.47
5.76
5.96
6.00
5.91
5.75
5.56
5.38
5.19
4.95
4.62
4.21
3.78
3.44
3.29
3.37
3.63
3.93
4.11
4.08
3.84
3.46
3.05
2.69
2.37
2.04
1.64
1.13
0.53
-0.06
-0.56
-0.90
-1.06
-1.10
-1.10
-1.20
-1.50
-2.05
-2.80
-3.61
-4.35
-4.92
-5.31
-5.58
-5.79
-6.03
-6.32
-6.70
-7.21
-7.89
-8.73
-9.64
-10.45
-10.92
-10.89
-10.29
-9.19
-7.79
-6.33
-5.00
-3.90
-3.03
-2.28
-1.57
-0.80
0.05
0.97
1.92
2.84
3.63
4.25
4.67
4.94
5.13
5.37
5.68
6.03
6.32
6.45
6.39
6.20
5.99
5.84
5.74
5.64
5.48
5.26
5.03
4.85
4.72
4.60
4.39
4.08
3.68
3.30
3.01
2.85
2.79
2.78
2.74
2.60
2.36
2.05
1.71
1.38
1.10
0.86
0.62
0.31
-0.12
-0.65
-1.22
-1.75
-2.20
-2.61
-3.05
-3.60
-4.25
-4.96
-5.63
-6.21
-6.71
-7.22
-7.84
-8.57
-9.35
-10.00
-10.28
-10.01
-9.14
-7.75
-6.09
-4.44
-3.02
-1.95
-1.17
-0.56
0.02
0.63
1.28
1.90
2.51
3.13
3.82
4.62
5.46
6.21
6.72
6.93
6.85
6.58
6.24
5.92
5.67
5.47
5.30
5.14
4.98
4.83
4.70
4.60
4.56
4.55
4.56
4.53
4.39
4.09
3.64
3.12
2.65
2.36
2.29
2.37
2.45
2.34
1.92
1.22
0.35
-0.44
-1.00
-1.26
-1.29
-1.25
-1.26
-1.39
-1.61
-1.92
-2.34
-2.93
-3.73
-4.69
-5.66
-6.44
-6.94
-7.20
-7.41
-7.80
-8.52
-9.57
-10.76
-11.81
-12.43
-12.48
-11.92
-10.86
-9.47
-7.93
-6.40
-4.94
-3.64
-2.54
-1.63
-0.90
-0.25
0.45
1.32
2.37
3.51
4.59
5.45
5.99
6.22
6.21
6.09
5.99
6.01
6.21
6.55
6.96
7.31
7.47
7.40
7.10
6.63
6.11
5.62
5.23
5.01
4.98
5.10
5.30
5.45
5.42
5.18
4.76
4.27
3.82
3.48
3.24
3.06
2.88
2.63
2.28
1.83
1.30
0.76
0.27
-0.10
-0.31
-0.36
-0.30
-0.23
-0.26
-0.47
-0.91
-1.53
-2.24
-2.91
-3.47
-3.90
-4.29
-4.74
-5.34
-6.08
-6.94
-7.89
-8.89
-9.91
-10.84
-11.53
-11.79
-11.51
-10.71
-9.54
-8.20
-6.88
-5.63
-4.45
-3.33
-2.27
-1.31
-0.50
0.15
0.66
1.11
1.55
2.04
2.59
3.20
3.86
4.52
5.14
5.68
6.09
6.39
6.58
6.65
6.59
6.41
6.15
5.87
5.63
5.45
5.31
5.13
4.85
4.48
4.06
3.66
3.32
3.04
2.80
2.59
2.39
2.23
2.09
1.97
1.80
1.57
1.27
0.91
0.52
0.11
-0.33
-0.83
-1.37
-1.94
-2.50
-3.01
-3.47
-3.89
-4.26
-4.59
-4.90
-5.23
-5.63
-6.19
-6.96
-7.95
-9.13
-10.36
-11.45
-12.21
-12.46
-12.12
-11.22
-9.91
-8.43
-7.00
-5.76
-4.71
-3.75
-2.77
-1.66
-0.44
0.82
1.99
2.95
3.66
4.12
4.41
4.65
4.91
5.25
5.66
6.08
6.42
6.63
6.72
6.74
6.81
6.97
7.18
7.33
7.32
7.08
6.68
6.23
5.87
5.67
5.59
5.51
5.30
4.91
4.39
3.85
3.41
3.14
3.03
2.99
2.94
2.84
2.70
2.54
2.36
2.12
1.75
1.23
0.59
-0.04
-0.54
-0.83
-0.97
-1.08
-1.29
-1.67
-2.15
-2.66
-3.14
-3.57
-4.01
-4.49
-4.98
-5.41
-5.77
-6.12
-6.60
-7.37
-8.41
-9.58
-10.58
-11.11
-11.00
-10.29
-9.16
-7.85
-6.53
-5.31
-4.17
-3.09
-2.05
-1.09
-0.22
0.54
1.22
1.84
2.39
2.85
3.19
3.45
3.69
3.99
4.40
4.87
5.31
5.61
5.73
5.69
5.61
5.58
5.66
5.80
5.93
5.96
5.83
5.53
5.12
4.70
4.36
4.14
4.01
3.87
3.58
3.09
2.41
1.68
1.03
0.59
0.39
0.38
0.47
0.52
0.41
0.06
-0.58
-1.46
-2.48
-3.48
-4.27
-4.79
-5.04
-5.17
-5.38
-5.80
-6.47
-7.33
-8.26
-9.13
-9.85
-10.34
-10.53
-10.31
-9.59
-8.37
-6.77
-5.04
-3.45
-2.20
-1.31
-0.64
0.04
0.88
1.92
3.02
3.99
4.67
5.04
5.19
5.26
5.37
5.54
5.73
5.87
5.93
5.95
6.02
6.17
6.37
6.48
6.39
6.06
5.54
4.99
4.54
4.25
4.10
4.01
3.93
3.84
3.80
3.86
4.00
4.14
4.16
3.97
3.57
3.01
2.39
1.75
1.12
0.48
-0.17
-0.79
-1.33
-1.74
-2.04
-2.30
-2.64
-3.14
-3.80
-4.55
-5.21
-5.67
-5.90
-5.98
-6.03
-6.22
-6.67
-7.42
-8.45
-9.65
-10.87
-11.90
-12.50
-12.52
-11.90
-10.71
-9.15
-7.45
-5.78
-4.28
-2.99
-1.94
-1.11
-0.43
0.15
0.72
1.33
2.02
2.74
3.47
4.15
4.76
5.24
5.57
5.71
5.67
5.55
5.47
5.52
5.74
6.04
6.30
6.38
6.25
5.95
5.59
5.26
5.01
4.84
4.72
4.62
4.55
4.49
4.40
4.24
3.96
3.61
3.22
2.83
2.45
2.02
1.49
0.84
0.14
-0.52
-1.03
-1.42
-1.74
-2.12
-2.62
-3.22
-3.83
-4.35
-4.76
-5.12
-5.56
-6.18
-7.05
-8.12
-9.24
-10.21
-10.79
-10.79
-10.15
-8.97
-7.48
-5.96
-4.64
-3.58
-2.71
-1.91
-1.11
-0.35
0.29
0.77
1.14
1.54
2.13
2.96
3.94
4.93
5.76
6.32
6.61
6.67
6.54
6.29
5.95
5.59
5.26
5.04
4.96
5.03
5.20
5.36
5.42
5.27
4.90
4.35
3.74
3.17
2.72
2.38
2.07
1.74
1.36
0.93
0.53
0.20
-0.08
-0.37
-0.74
-1.21
-1.74
-2.25
-2.71
-3.14
-3.60
-4.19
-4.92
-5.74
-6.56
-7.29
-7.92
-8.50
-9.09
-9.73
-10.36
-10.84
-11.00
-10.73
-10.03
-8.97
-7.69
-6.33
-4.97
-3.65
-2.41
-1.27
-0.28
0.55
1.24
1.84
2.44
3.12
3.89
4.70
5.45
6.02
6.34
6.45
6.46
6.50
6.69
7.03
7.44
7.76
7.86
7.70
7.33
6.83
6.29
5.74
5.23
4.78
4.46
4.34
4.42
4.66
4.93
5.12
5.15
4.96
4.59
4.09
3.54
3.01
2.57
2.23
1.97
1.72
1.41
1.05
0.68
0.38
0.20
0.13
0.05
-0.16
-0.61
-1.30
-2.18
-3.09
-3.88
-4.45
-4.81
-5.00
-5.15
-5.38
-5.80
-6.45
-7.31
-8.32
-9.32
-10.14
-10.59
-10.53
-9.94
-8.88
-7.49
-5.96
-4.45
-3.07
-1.85
-0.79
0.13
0.93
1.63
2.22
2.72
3.15
3.55
3.92
4.26
4.54
4.76
4.89
4.96
5.02
5.15
5.38
5.68
5.98
6.18
6.20
6.04
5.74
5.38
5.06
4.84
4.72
4.65
4.56
4.35
4.01
3.58
3.14
2.81
2.64
2.57
2.50
2.29
1.85
1.15
0.29
-0.59
-1.36
-1.89
-2.18
-2.26
-2.25
-2.30
-2.49
-2.87
-3.38
-3.93
-4.45
-4.93
-5.45
-6.10
-6.99
-8.11
-9.38
-10.63
-11.67
-12.31
-12.43
-12.00
-11.10
-9.85
-8.44
-7.00
-5.61
-4.29
-3.03
-1.82
-0.67
0.35
1.21
1.89
2.46
3.02
3.70
4.51
5.39
6.18
6.75
7.02
7.04
6.97
6.94
7.04
7.24
7.47
7.63
7.70
7.71
7.69
7.69
7.71
7.75
7.81
7.92
8.08
8.25
8.38
8.43
8.39
8.35
8.42
8.63
8.94
9.19
9.18
8.83
8.21
7.55
7.20
7.38
8.15
9.31
10.50
11.36
11.74
11.78
11.83
12.32
13.42
14.82
15.77
15.32
12.58
7.03
-1.41
-12.36
-25.08
-38.41
-50.77
-60.36
-65.55
-65.47
-60.47
-52.16
-42.83
-34.58
-28.52
-24.49
-21.49
-18.43
-14.77
-10.80
-7.26
-4.81
-3.62
-3.35
-3.43
-3.44
-3.37
-3.51
-4.14
-5.31
-6.71
-7.82
-8.18
-7.60
-6.27
-4.61
-3.12
-2.15
-1.80
-1.88
-2.03
-1.87
-1.13
0.26
2.11
4.13
6.08
7.86
9.55
11.30
13.22
15.20
16.98
18.22
18.68
18.31
17.30
15.95
14.57
13.37
12.41
11.62
10.85
9.93
8.76
7.30
5.66
3.98
2.41
1.01
-0.27
-1.57
-2.99
-4.55
-6.12
-7.50
-8.52
-9.07
-9.15
-8.80
-8.10
-7.13
-5.97
-4.76
-3.58
-2.51
-1.52
-0.55
0.51
1.67
2.88
4.02
4.94
5.60
6.02
6.31
6.54
6.74
6.87
6.88
6.77
6.58
6.41
6.33
6.33
6.31
6.16
5.81
5.32
4.82
4.44
4.25
4.22
4.26
4.25
4.11
3.79
3.31
2.73
2.14
1.63
1.28
1.13
1.12
1.15
1.11
0.93
0.61
0.21
-0.23
-0.67
-1.11
-1.55
-1.99
-2.40
-2.78
-3.13
-3.45
-3.76
-4.05
-4.36
-4.73
-5.21
-5.78
-6.37
-6.80
-6.87
-6.43
-5.49
-4.22
-2.86
-1.64
-0.70
-0.01
0.52
1.02
1.55
2.08
2.57
2.99
3.35
3.72
4.15
4.66
5.22
5.78
6.28
6.66
6.94
7.15
7.29
7.37
7.36
7.21
6.91
6.48
5.99
5.52
5.10
4.75
4.45
4.16
3.91
3.70
3.54
3.40
3.20
2.89
2.47
2.03
1.65
1.38
1.21
1.03
0.72
0.23
-0.43
-1.15
-1.84
-2.42
-2.87
-3.21
-3.50
-3.76
-4.06
-4.40
-4.84
-5.39
-6.04
-6.71
-7.30
-7.63
-7.59
-7.15
-6.36
-5.31
-4.11
-2.85
-1.59
-0.38
0.72
1.64
2.33
2.79
3.06
3.22
3.33
3.46
3.62
3.83
4.07
4.27
4.36
4.29
4.09
3.84
3.68
3.70
3.91
4.19
4.41
4.43
4.23
3.86
3.42
3.00
2.67
2.46
2.39
2.49
2.69
2.91
3.01
2.88
2.49
1.92
1.28
0.65
0.04
-0.60
-1.32
-2.11
-2.89
-3.53
-3.91
-4.03
-3.93
-3.79
-3.76
-3.96
-4.46
-5.21
-6.11
-7.02
-7.78
-8.26
-8.34
-7.95
-7.10
-5.87
-4.43
-2.98
-1.67
-0.57
0.37
1.24
2.11
2.99
3.82
4.50
4.99
5.27
5.38
5.37
5.29
5.20
5.17
5.26
5.50
5.84
6.17
6.36
6.33
6.09
5.74
5.42
5.23
5.20
5.30
5.41
5.44
5.32
5.01
4.51
3.81
2.96
2.04
1.17
0.48
0.05
-0.11
-0.10
-0.07
-0.17
-0.45
-0.94
-1.59
-2.34
-3.12
-3.86
-4.45
-4.81
-4.91
-4.81
-4.68
-4.72
-5.05
-5.64
-6.31
-6.82
-6.98
-6.70
-6.00
-4.99
-3.77
-2.50
-1.31
-0.35
0.31
0.70
0.96
1.31
1.93
2.90
4.17
5.58
6.96
8.18
9.22
10.12
10.90
11.55
12.02
12.28
12.39
12.51
12.84
13.55
14.72
16.27
18.03
19.76
21.21
22.20
22.57
22.23
21.13
19.34
17.04
14.50
12.02
9.87
8.23
7.18
6.72
6.86
7.61
8.98
10.98
13.50
16.34
19.14
21.53
23.26
24.31
24.81
24.92
24.54
23.26
20.46
15.71
9.07
1.28
-6.52
-13.20
-18.05
-20.97
-22.24
-22.20
-20.99
-18.75
-15.80
-12.88
-10.98
-10.84
-12.49
-15.06
-17.14
-17.43
-15.38
-11.42
-6.73
-2.62
-0.02
0.78
-0.01
-1.96
-4.70
-8.02
-11.77
-15.79
-19.77
-23.33
-26.12
-27.90
-28.68
-28.66
-28.12
-27.35
-26.50
-25.63
-24.68
-23.62
-22.45
-21.24
-20.12
-19.20
-18.50
-17.93
-17.33
-16.53
-15.46
-14.15
-12.80
-11.62
-10.79
-10.31
-10.07
-9.85
-9.41
-8.63
-7.50
-6.11
-4.59
-3.10
-1.79
-0.73
0.08
0.73
1.34
2.03
2.83
3.69
4.50
5.17
5.66
6.03
6.33
6.57
6.72
6.65
6.28
5.57
4.58
3.43
2.23
1.07
-0.00
-0.95
-1.72
-2.26
-2.51
-2.50
-2.25
-1.83
-1.28
-0.63
0.08
0.81
1.45
1.92
2.12
2.06
1.82
1.52
1.27
1.12
1.07
1.07
1.05
0.97
0.79
0.49
0.07
-0.46
-1.12
-1.88
-2.70
-3.50
-4.23
-4.83
-5.33
-5.73
-6.04
-6.25
-6.27
-6.02
-5.45
-4.65
-3.76
-2.95
-2.33
-1.87
-1.46
-0.97
-0.32
0.45
1.25
1.92
2.36
2.54
2.51
2.39
2.31
2.42
2.77
3.33
4.01
4.68
5.19
5.48
5.50
5.30
4.95
4.60
4.37
4.31
4.38
4.47
4.43
4.19
3.76
3.25
2.81
2.53
2.44
2.49
2.54
2.46
2.16
1.57
0.74
-0.22
-1.14
-1.86
-2.30
-2.49
-2.55
-2.65
-2.93
-3.43
-4.09
-4.81
-5.47
-5.95
-6.22
-6.25
-6.02
-5.50
-4.67
-3.58
-2.32
-1.05
0.04
0.85
1.36
1.69
1.95
2.25
2.61
2.97
3.30
3.57
3.81
4.06
4.32
4.57
4.75
4.83
4.84
4.84
4.90
5.02
5.14
5.15
4.99
4.67
4.28
3.93
3.67
3.50
3.38
3.24
3.06
2.87
2.68
2.50
2.29
1.98
1.59
1.13
0.70
0.36
0.11
-0.11
-0.38
-0.74
-1.16
-1.57
-1.95
-2.34
-2.83
-3.53
-4.40
-5.37
-6.29
-7.04
-7.62
-8.08
-8.52
-8.93
-9.22
-9.22
-8.81
-7.99
-6.90
-5.73
-4.67
-3.80
-3.10
-2.45
-1.74
-0.95
-0.11
0.67
1.28
1.67
1.86
1.94
1.99
2.10
2.31
2.62
3.02
3.48
3.98
4.50
4.96
5.27
5.37
5.23
4.94
4.63
4.44
4.45
4.63
4.86
5.02
5.01
4.83
4.53
4.22
3.95
3.76
3.66
3.61
3.57
3.48
3.27
2.93
2.50
2.08
1.78
1.65
1.67
1.68
1.55
1.17
0.57
-0.14
-0.80
-1.33
-1.80
-2.32
-3.04
-3.97
-5.00
-5.87
-6.35
-6.28
-5.73
-4.86
-3.86
-2.88
-1.94
-1.02
-0.14
0.65
1.23
1.52
1.55
1.45
1.37
1.44
1.68
2.03
2.41
2.77
3.13
3.50
3.85
4.11
4.18
4.05
3.78
3.51
3.37
3.41
3.61
3.82
3.93
3.85
3.57
3.12
2.61
2.11
1.70
1.41
1.22
1.05
0.82
0.49
0.06
-0.43
-0.90
-1.32
-1.70
-2.04
-2.38
-2.70
-3.00
-3.28
-3.57
-3.92
-4.35
-4.87
-5.46
-6.04
-6.53
-6.81
-6.81
-6.50
-5.93
-5.22
-4.50
-3.88
-3.34
-2.83
-2.28
-1.67
-1.09
-0.63
-0.37
-0.26
-0.18
0.03
0.46
1.09
1.82
2.54
3.14
3.59
3.87
4.00
3.97
3.78
3.47
3.14
2.90
2.82
2.90
3.08
3.22
3.25
3.19
3.10
3.05
3.02
2.97
2.81
2.52
2.15
1.79
1.51
1.32
1.16
0.93
0.58
0.15
-0.30
-0.72
-1.09
-1.45
-1.86
-2.34
-2.86
-3.33
-3.66
-3.81
-3.80
-3.74
-3.77
-4.02
-4.50
-5.16
-5.81
-6.24
-6.32
-6.01
-5.40
-4.64
-3.85
-3.09
-2.34
-1.56
-0.76
0.02
0.66
1.07
1.25
1.28
1.29
1.40
1.67
2.07
2.48
2.77
2.84
2.67
2.32
1.95
1.75
1.81
2.13
2.58
2.95
3.08
2.91
2.53
2.14
1.91
1.93
2.16
2.48
2.76
2.91
2.91
2.79
2.54
2.18
1.71
1.18
0.69
0.35
0.20
0.18
0.15
-0.08
-0.61
-1.40
-2.28
-3.02
-3.48
-3.65
-3.69
-3.80
-4.16
-4.77
-5.54
-6.25
-6.76
-6.99
-6.97
-6.73
-6.30
-5.69
-4.90
-3.96
-2.97
-2.05
-1.30
-0.76
-0.41
-0.19
-0.03
0.20
0.59
1.21
2.03
2.91
3.66
4.11
4.20
4.02
3.75
3.56
3.49
3.51
3.49
3.39
3.20
3.03
2.95
2.99
3.06
3.04
2.82
2.42
2.00
1.74
1.77
2.08
2.49
2.75
2.70
2.32
1.77
1.27
0.99
0.96
1.03
1.05
0.90
0.58
0.18
-0.22
-0.56
-0.85
-1.16
-1.53
-2.00
-2.58
-3.23
-3.87
-4.43
-4.85
-5.14
-5.36
-5.61
-5.95
-6.34
-6.62
-6.60
-6.20
-5.46
-4.60
-3.81
-3.21
-2.73
-2.23
-1.59
-0.82
-0.03
0.61
1.02
1.28
1.51
1.84
2.25
2.63
2.82
2.77
2.57
2.43
2.56
3.05
3.83
4.68
5.36
5.68
5.61
5.26
4.79
4.37
4.05
3.85
3.73
3.62
3.48
3.26
2.97
2.64
2.38
2.26
2.32
2.54
2.78
2.90
2.79
2.43
1.93
1.41
0.96
0.59
0.23
-0.19
-0.66
-1.12
-1.42
-1.51
-1.46
-1.46
-1.76
-2.50
-3.63
-4.93
-6.09
-6.85
-7.10
-6.90
-6.38
-5.68
-4.90
-4.08
-3.21
-2.30
-1.38
-0.50
0.25
0.81
1.13
1.22
1.15
1.06
1.08
1.29
1.69
2.19
2.66
3.01
3.21
3.28
3.29
3.30
3.33
3.38
3.41
3.37
3.23
3.03
2.80
2.63
2.56
2.61
2.71
2.79
2.72
2.44
1.91
1.15
0.25
-0.68
-1.53
-2.19
-2.62
-2.82
-2.88
-2.90
-2.97
-3.12
-3.35
-3.62
-3.90
-4.18
-4.47
-4.74
-4.94
-4.96
-4.70
-4.12
-3.28
-2.33
-1.47
-0.81
-0.38
-0.12
0.09
0.37
0.74
1.17
1.61
1.99
2.30
2.54
2.76
3.00
3.28
3.62
4.01
4.39
4.67
4.79
4.70
4.47
4.15
3.84
3.62
3.50
3.45
3.40
3.28
3.04
2.66
2.22
1.83
1.61
1.61
1.78
1.97
2.00
1.76
1.22
0.50
-0.27
-0.99
-1.63
-2.23
-2.82
-3.40
-3.93
-4.34
-4.62
-4.79
-4.92
-5.09
-5.35
-5.72
-6.23
-6.86
-7.60
-8.36
-8.99
-9.35
-9.31
-8.87
-8.08
-7.07
-5.97
-4.84
-3.73
-2.66
-1.69
-0.87
-0.26
0.18
0.54
0.92
1.35
1.82
2.26
2.64
3.02
3.47
4.06
4.75
5.44
5.95
6.16
6.05
5.74
5.38
5.12
4.99
4.92
4.78
4.52
4.13
3.75
3.50
3.44
3.52
3.62
3.62
3.52
3.35
3.24
3.22
3.28
3.32
3.25
3.01
2.64
2.21
1.77
1.34
0.91
0.50
0.13
-0.16
-0.37
-0.55
-0.81
-1.27
-1.96
-2.83
-3.75
-4.57
-5.21
-5.68
-6.05
-6.41
-6.80
-7.16
-7.37
-7.29
-6.82
-5.99
-4.96
-3.92
-3.04
-2.40
-1.96
-1.58
-1.16
-0.62
0.00
0.61
1.12
1.52
1.84
2.13
2.44
2.76
3.06
3.30
3.48
3.66
3.90
4.25
4.69
5.14
5.47
5.56
5.37
4.93
4.35
3.76
3.27
2.95
2.82
2.85
3.00
3.18
3.31
3.34
3.23
2.99
2.64
2.23
1.78
1.32
0.87
0.45
0.08
-0.26
-0.59
-0.95
-1.36
-1.83
-2.34
-2.88
-3.42
-4.01
-4.68
-5.47
-6.37
-7.27
-8.02
-8.46
-8.46
-8.00
-7.16
-6.09
-4.96
-3.92
-3.03
-2.30
-1.65
-1.04
-0.43
0.16
0.68
1.08
1.37
1.61
1.89
2.27
2.72
3.16
3.47
3.59
3.51
3.33
3.20
3.26
3.59
4.13
4.79
5.36
5.68
5.65
5.28
4.70
4.08
3.60
3.36
3.34
3.43
3.50
3.43
3.21
2.92
2.68
2.56
2.51
2.41
2.13
1.65
1.06
0.52
0.17
0.04
0.07
0.14
0.16
0.11
0.02
-0.05
-0.16
-0.37
-0.78
-1.43
-2.31
-3.29
-4.23
-5.01
-5.55
-5.86
-6.05
-6.24
-6.52
-6.87
-7.20
-7.33
-7.16
-6.67
-5.96
-5.18
-4.46
-3.80
-3.17
-2.55
-1.93
-1.38
-0.94
-0.61
-0.33
0.00
0.43
0.91
1.35
1.64
1.80
1.90
2.06
2.37
2.85
3.38
3.82
4.03
3.98
3.71
3.39
3.18
3.19
3.41
3.71
3.94
3.99
3.84
3.57
3.30
3.10
2.97
2.85
2.72
2.57
2.45
2.38
2.32
2.21
1.96
1.57
1.11
0.69
0.41
0.28
0.23
0.17
0.04
-0.17
-0.42
-0.66
-0.88
-1.11
-1.41
-1.81
-2.29
-2.80
-3.28
-3.75
-4.29
-5.00
-5.90
-6.86
-7.65
-8.00
-7.72
-6.87
-5.65
-4.41
-3.42
-2.80
-2.48
-2.30
-2.05
-1.63
-1.06
-0.43
0.14
0.56
0.82
0.99
1.13
1.30
1.51
1.73
1.95
2.19
2.48
2.88
3.39
3.94
4.36
4.49
4.24
3.64
2.86
2.13
1.65
1.46
1.51
1.62
1.63
1.50
1.26
1.04
0.96
1.06
1.32
1.62
1.88
2.03
2.03
1.84
1.46
0.85
0.07
-0.81
-1.62
-2.18
-2.38
-2.22
-1.83
-1.41
-1.18
-1.30
-1.76
-2.47
-3.25
-3.96
-4.50
-4.90
-5.25
-5.66
-6.17
-6.75
-7.32
-7.73
-7.87
-7.70
-7.27
-6.65
-5.93
-5.18
-4.40
-3.58
-2.71
-1.81
-0.93
-0.16
0.44
0.87
1.14
1.30
1.41
1.54
1.73
2.06
2.55
3.18
3.83
4.36
4.64
4.66
4.47
4.21
4.00
3.92
3.93
3.97
3.95
3.86
3.73
3.64
3.63
3.69
3.76
3.79
3.74
3.64
3.53
3.40
3.25
3.03
2.74
2.40
2.12
2.01
2.10
2.32
2.52
2.56
2.36
1.99
1.58
1.28
1.12
1.00
0.77
0.33
-0.30
-1.01
-1.65
-2.16
-2.57
-2.97
-3.44
-3.95
-4.44
-4.85
-5.19
-5.54
-5.96
-6.42
-6.84
-7.06
-6.96
-6.55
-5.87
-5.06
-4.22
-3.40
-2.63
-1.90
-1.22
-0.58
0.03
0.60
1.12
1.53
1.81
1.95
2.01
2.05
2.15
2.33
2.58
2.88
3.20
3.56
3.99
4.44
4.80
4.96
4.82
4.43
3.94
3.55
3.39
3.43
3.51
3.42
3.03
2.36
1.59
0.93
0.52
0.39
0.43
0.50
0.49
0.37
0.18
-0.04
-0.27
-0.51
-0.80
-1.15
-1.52
-1.84
-2.06
-2.18
-2.29
-2.49
-2.84
-3.38
-4.03
-4.74
-5.44
-6.12
-6.81
-7.51
-8.15
-8.64
-8.86
-8.77
-8.40
-7.85
-7.23
-6.57
-5.88
-5.09
-4.19
-3.22
-2.24
-1.32
-0.49
0.23
0.82
1.28
1.61
1.82
1.98
2.15
2.41
2.78
3.21
3.65
4.07
4.41
4.68
4.90
5.08
5.21
5.30
5.35
5.38
5.36
5.26
5.04
4.69
4.28
3.90
3.66
3.57
3.55
3.45
3.15
2.65
2.05
1.54
1.23
1.13
1.14
1.16
1.12
1.07
1.09
1.20
1.32
1.32
1.07
0.55
-0.10
-0.73
-1.20
-1.51
-1.74
-1.98
-2.28
-2.61
-2.92
-3.17
-3.45
-3.86
-4.52
-5.40
-6.40
-7.31
-7.92
-8.12
-7.91
-7.38
-6.63
-5.77
-4.89
-4.04
-3.25
-2.56
-1.99
-1.54
-1.16
-0.79
-0.35
0.22
0.88
1.55
2.12
2.54
2.80
2.99
3.18
3.43
3.75
4.09
4.38
4.58
4.67
4.67
4.60
4.49
4.34
4.22
4.15
4.18
4.30
4.48
4.64
4.69
4.57
4.27
3.84
3.37
2.98
2.74
2.67
2.69
2.71
2.63
2.41
2.08
1.73
1.42
1.18
0.96
0.68
0.30
-0.21
-0.79
-1.39
-1.95
-2.44
-2.84
-3.16
-3.45
-3.81
-4.30
-4.95
-5.67
-6.30
-6.69
-6.76
-6.57
-6.26
-5.95
-5.64
-5.25
-4.66
-3.83
-2.85
-1.91
-1.13
-0.55
-0.07
0.44
1.04
1.62
2.03
2.15
2.02
1.83
1.87
2.30
3.12
4.09
4.90
5.31
5.28
4.94
4.53
4.25
4.18
4.24
4.32
4.33
4.25
4.10
3.92
3.69
3.36
2.92
2.41
1.95
1.67
1.64
1.82
2.07
2.23
2.21
1.99
1.67
1.32
1.00
0.70
0.39
0.06
-0.26
-0.51
-0.64
-0.71
-0.79
-1.01
-1.44
-2.06
-2.78
-3.48
-4.09
-4.61
-5.10
-5.62
-6.18
-6.73
-7.19
-7.50
-7.63
-7.61
-7.48
-7.27
-6.95
-6.50
-5.87
-5.07
-4.16
-3.23
-2.38
-1.65
-1.03
-0.47
0.08
0.62
1.15
1.63
2.04
2.38
2.70
3.05
3.46
3.94
4.44
4.91
5.29
5.53
5.60
5.52
5.32
5.04
4.74
4.49
4.36
4.42
4.66
5.01
5.35
5.52
5.44
5.09
4.58
4.04
3.59
3.27
3.02
2.76
2.46
2.17
2.03
2.14
2.47
2.89
3.14
3.05
2.56
1.83
1.08
0.52
0.23
0.14
0.07
-0.09
-0.38
-0.73
-1.06
-1.31
-1.50
-1.72
-2.02
-2.46
-3.02
-3.67
-4.37
-5.08
-5.79
-6.47
-7.04
-7.46
-7.64
-7.54
-7.16
-6.56
-5.80
-4.95
-4.08
-3.21
-2.36
-1.51
-0.67
0.14
0.87
1.45
1.82
1.96
1.90
1.75
1.65
1.70
1.97
2.40
2.92
3.41
3.80
4.06
4.22
4.29
4.29
4.23
4.13
4.03
3.98
4.00
4.08
4.20
4.27
4.21
3.97
3.53
2.93
2.24
1.55
0.92
0.39
-0.00
-0.26
-0.39
-0.42
-0.40
-0.37
-0.38
-0.46
-0.65
-0.91
-1.22
-1.53
-1.80
-2.05
-2.31
-2.66
-3.13
-3.72
-4.36
-4.95
-5.45
-5.85
-6.23
-6.69
-7.25
-7.86
-8.42
-8.82
-8.99
-8.94
-8.71
-8.33
-7.79
-7.05
-6.09
-4.97
-3.82
-2.78
-1.93
-1.23
-0.59
0.15
1.02
1.99
2.87
3.49
3.73
3.61
3.28
3.00
2.93
3.13
3.51
3.93
4.27
4.54
4.77
5.05
5.36
5.63
5.74
5.64
5.35
4.95
4.52
4.10
3.67
3.21
2.75
2.34
2.10
2.10
2.33
2.74
3.20
3.59
3.79
3.74
3.40
2.83
2.18
1.59
1.21
1.11
1.23
1.41
1.47
1.25
0.72
-0.07
-0.96
-1.76
-2.34
-2.66
-2.76
-2.72
-2.65
-2.66
-2.83
-3.24
-3.94
-4.91
-6.04
-7.11
-7.91
-8.27
-8.19
-7.75
-7.12
-6.44
-5.77
-5.08
-4.36
-3.60
-2.86
-2.22
-1.68
-1.23
-0.79
-0.27
0.32
0.95
1.52
1.95
2.22
2.38
2.48
2.58
2.70
2.81
2.90
3.00
3.11
3.27
3.46
3.64
3.78
3.86
3.87
3.81
3.68
3.45
3.11
2.73
2.40
2.20
2.15
2.18
2.17
2.00
1.66
1.20
0.74
0.37
0.07
-0.18
-0.45
-0.74
-1.04
-1.34
-1.64
-2.02
-2.55
-3.25
-4.02
-4.72
-5.20
-5.42
-5.50
-5.61
-5.90
-6.39
-6.99
-7.47
-7.66
-7.45
-6.82
-5.85
-4.69
-3.51
-2.44
-1.60
-1.06
-0.79
-0.68
-0.56
-0.29
0.21
0.88
1.62
2.28
2.79
3.19
3.57
4.02
4.56
5.13
5.60
5.86
5.88
5.69
5.39
5.05
4.72
4.39
4.04
3.67
3.32
3.03
2.86
2.85
3.01
3.31
3.64
3.87
3.88
3.63
3.15
2.57
2.04
1.67
1.50
1.50
1.60
1.73
1.81
1.78
1.56
1.13
0.54
-0.11
-0.69
-1.10
-1.31
-1.38
-1.42
-1.51
-1.69
-1.97
-2.31
-2.69
-3.10
-3.53
-4.00
-4.51
-5.08
-5.74
-6.54
-7.46
-8.41
-9.20
-9.61
-9.48
-8.78
-7.61
-6.18
-4.73
-3.42
-2.29
-1.33
-0.51
0.21
0.80
1.28
1.68
2.10
2.61
3.24
3.95
4.64
5.22
5.71
6.18
6.76
7.53
8.46
9.37
10.09
10.51
10.64
10.63
10.64
10.80
11.15
11.66
12.27
12.91
13.54
14.15
14.73
15.31
15.96
16.74
17.73
18.90
20.15
21.33
22.30
23.04
23.68
24.47
25.69
27.49
29.77
32.10
33.71
33.72
31.37
26.31
18.75
9.40
-0.70
-10.42
-18.86
-25.42
-29.87
-32.33
-33.10
-32.63
-31.40
-29.80
-28.08
-26.38
-24.72
-23.11
-21.54
-19.95
-18.25
-16.36
-14.34
-12.47
-11.30
-11.49
-13.60
-17.86
-24.18
-32.16
-41.18
-50.45
-58.99
-65.57
-68.94
-68.16
-62.99
-54.07
-42.78
-30.76
-19.34
-9.19
-0.32
7.54
14.58
20.71
25.57
28.83
30.38
30.39
29.19
27.05
24.10
20.36
15.96
11.30
7.08
4.05
2.73
3.25
5.26
8.12
11.14
13.77
15.64
16.55
16.40
15.18
13.02
10.15
6.90
3.52
0.11
-3.44
-7.36
-11.79
-16.69
-21.75
-26.51
-30.52
-33.43
-35.07
-35.39
-34.38
-32.05
-28.48
-23.89
-18.70
-13.42
-8.55
-4.43
-1.15
1.44
3.59
5.49
7.20
8.59
9.47
9.71
9.32
8.46
7.38
6.29
5.32
4.51
3.89
3.52
3.47
3.84
4.61
5.65
6.78
7.82
8.73
9.53
10.26
10.91
11.34
11.40
10.97
10.08
8.86
7.55
6.38
5.53
5.12
5.16
5.60
6.29
7.06
7.69
8.00
7.88
7.35
6.50
5.48
4.39
3.35
2.38
1.46
0.56
-0.40
-1.45
-2.57
-3.62
-4.46
-4.93
-5.04
-4.93
-4.89
-5.19
-5.94
-7.01
-8.07
-8.71
-8.62
-7.73
-6.24
-4.45
-2.71
-1.23
-0.09
0.76
1.42
1.99
2.50
2.98
3.38
3.67
3.79
3.70
3.38
2.87
2.25
1.60
0.99
0.45
0.01
-0.24
-0.20
0.26
1.13
2.32
3.60
4.75
5.63
6.20
6.45
6.37
5.86
4.83
3.24
1.21
-0.98
-2.98
-4.40
-5.01
-4.67
-3.42
-1.45
0.93
3.32
5.33
6.64
7.15
6.93
6.22
5.31
4.44
3.78
3.38
3.20
3.14
3.08
2.98
2.86
2.78
2.85
3.12
3.58
4.22
4.97
5.78
6.61
7.38
8.03
8.48
8.79
9.07
9.47
10.10
10.91
11.80
12.67
13.50
14.45
15.73
17.56
20.02
23.06
26.52
30.25
34.09
37.92
41.57
44.90
47.81
50.26
52.36
54.20
55.81
57.10
57.90
58.08
57.66
56.79
55.76
54.81
54.07
53.51
52.95
52.12
50.71
48.38
44.88
40.18
34.64
29.01
24.23
21.00
19.38
18.54
17.05
13.39
6.68
-2.96
-14.45
-26.18
-36.65
-44.96
-50.90
-54.82
-57.48
-59.84
-62.87
-67.27
-73.07
-79.32
-84.31
-86.08
-83.38
-76.24
-66.14
-55.34
-45.93
-39.00
-34.40
-31.13
-28.06
-24.56
-20.67
-16.87
-13.66
-11.22
-9.34
-7.64
-5.79
-3.73
-1.64
0.08
1.14
1.45
1.17
0.70
0.48
0.93
2.27
4.56
7.74
11.66
16.09
20.63
24.69
27.47
28.10
25.98
21.09
14.32
7.22
1.43
-2.17
-4.03
-5.77
-9.40
-16.16
-25.68
-36.00
-44.41
-48.66
-47.80
-42.35
-33.74
-23.52
-12.98
-3.23
4.46
8.48
7.20
-0.31
-13.74
-31.37
-50.53
-68.41
-82.80
-92.53
-97.36
-97.77
-94.53
-88.48
-80.42
-71.06
-60.97
-50.63
-40.38
-30.49
-21.22
-12.85
-5.63
0.15
4.32
6.80
7.71
7.39
6.42
5.50
5.29
6.26
8.57
12.10
16.49
21.21
25.73
29.53
32.26
33.76
34.08
33.48
32.26
30.73
29.05
27.31
25.55
23.85
22.30
21.02
20.05
19.40
18.98
18.70
18.50
18.34
18.19
18.02
17.75
17.26
16.40
15.06
13.19
10.92
8.49
6.20
4.30
2.92
1.95
1.13
0.16
-1.21
-3.06
-5.29
-7.68
-9.96
-11.83
-13.03
-13.32
-12.57
-10.74
-8.03
-4.76
-1.42
1.55
3.82
5.35
6.31
7.03
7.86
8.96
10.31
11.70
12.85
13.53
13.64
13.22
12.35
11.14
9.68
8.09
6.49
5.03
3.79
2.81
2.00
1.31
0.73
0.33
0.27
0.67
1.59
2.93
4.47
5.98
7.25
8.18
8.79
9.16
9.38
9.56
9.69
9.74
9.60
9.19
8.42
7.27
5.80
4.12
2.38
0.65
-1.06
-2.84
-4.78
-6.91
-9.04
-10.84
-11.87
-11.84
-10.72
-8.76
-6.41
-4.14
-2.26
-0.84
0.18
0.94
1.52
1.91
2.11
2.14
2.07
2.05
2.15
2.34
2.49
2.39
1.87
0.89
-0.46
-2.00
-3.52
-4.84
-5.85
-6.41
-6.38
-5.59
-3.99
-1.66
1.15
4.04
6.61
8.57
9.74
10.12
9.80
8.94
7.74
6.44
5.29
4.49
4.09
3.97
3.88
3.53
2.72
1.41
-0.26
-2.06
-3.73
-5.07
-5.94
-6.27
-5.99
-5.08
-3.58
-1.65
0.39
2.13
3.17
3.25
2.31
0.56
-1.62
-3.73
-5.33
-6.10
-5.95
-5.03
-3.64
-2.14
-0.88
-0.03
0.38
0.40
0.15
-0.27
-0.78
-1.31
-1.80
-2.11
-2.15
-1.77
-0.92
0.41
2.09
3.95
5.76
7.33
8.51
9.25
9.59
9.61
9.38
8.93
8.27
7.43
6.47
5.51
4.71
4.20
3.99
3.95
3.80
3.24
2.07
0.34
-1.63
-3.36
-4.41
-4.54
-3.80
-2.48
-0.94
0.51
1.72
2.68
3.40
3.85
3.88
3.30
1.96
-0.13
-2.72
-5.40
-7.66
-9.14
-9.66
-9.31
-8.40
-7.33
-6.43
-5.90
-5.72
-5.67
-5.48
-4.91
-3.85
-2.38
-0.67
1.10
2.79
4.32
5.64
6.64
7.22
7.25
6.73
5.81
4.71
3.67
2.85
2.34
2.11
2.15
2.44
2.96
3.67
4.48
5.27
5.89
6.26
6.36
6.28
6.14
6.11
6.32
6.84
7.64
8.61
9.59
10.48
11.24
11.93
12.59
13.22
13.76
14.14
14.30
14.29
14.17
13.92
13.44
12.70
11.99
12.07
14.05
18.82
26.54
36.16
45.59
52.32
54.29
50.56
41.57
28.87
14.55
0.68
-11.12
-19.78
-24.85
-26.38
-24.87
-21.15
-16.26
-11.13
-6.20
-1.18
4.82
12.61
22.08
31.57
38.07
38.33
30.34
14.46
-6.55
-28.51
-47.52
-61.23
-69.35
-73.10
-74.18
-74.01
-73.36
-72.58
-71.80
-71.21
-70.94
-70.81
-70.12
-67.51
-61.30
-50.11
-33.55
-12.71
9.99
31.51
49.30
62.11
70.27
75.12
78.12
80.05
80.85
79.95
76.92
71.92
65.56
58.60
51.43
43.96
35.76
26.52
16.31
5.68
-4.58
-13.83
-21.71
-28.26
-33.60
-37.82
-40.82
-42.46
-42.63
-41.48
-39.32
-36.60
-33.70
-30.86
-28.16
-25.60
-23.11
-20.68
-18.29
-15.96
-13.76
-11.76
-10.02
-8.55
-7.23
-5.89
-4.33
-2.44
-0.26
2.04
4.18
5.92
7.08
7.62
7.61
7.18
6.45
5.51
4.39
3.08
1.58
-0.06
-1.69
-3.14
-4.27
-5.01
-5.44
-5.65
-5.73
-5.76
-5.73
-5.65
-5.53
-5.42
-5.36
-5.32
-5.27
-5.13
-4.86
-4.52
-4.18
-3.91
-3.77
-3.72
-3.74
-3.79
-3.87
-3.99
-4.15
-4.39
-4.68
-5.04
-5.45
-5.93
-6.44
-6.96
-7.44
-7.83
-8.06
-8.04
-7.72
-7.07
-6.18
-5.18
-4.23
-3.42
-2.70
-1.96
-1.10
-0.11
0.86
1.62
2.03
2.10
2.00
1.98
2.20
2.72
3.44
4.22
4.95
5.53
5.93
6.15
6.19
6.10
5.95
5.84
5.78
5.74
5.66
5.46
5.16
4.85
4.65
4.63
4.73
4.77
4.63
4.23
3.73
3.36
3.38
3.87
4.71
5.64
6.34
6.64
6.55
6.27
6.15
6.40
7.11
8.14
9.26
10.14
10.52
10.33
9.81
9.41
9.60
10.66
12.57
14.92
17.10
18.49
18.83
18.39
18.04
18.75
21.27
25.86
32.01
38.38
43.02
43.73
38.60
26.54
7.34
-17.59
-44.94
-70.14
-89.05
-99.61
-102.56
-100.72
-97.03
-93.56
-89.84
-82.93
-69.41
-47.99
-20.83
7.50
32.41
51.57
64.12
70.84
74.05
76.32
79.61
84.75
91.61
99.20
105.48
105.62
94.18
68.67
30.28
-17.01
-68.82
-121.94
-174.74
-215.56
-233.20
-224.32
-195.33
-156.77
-116.67
-79.83
-49.27
-26.76
-13.04
-9.34
-18.11
-35.01
-53.32
-65.55
-65.80
-51.24
-22.24
17.41
63.71
105.63
134.69
148.90
152.63
152.44
153.49
157.67
164.53
168.49
163.73
146.96
117.76
78.68
33.13
-15.64
-64.83
-113.28
-159.71
-196.89
-216.98
-214.11
-186.29
-138.00
-78.38
-13.45
44.18
84.39
106.46
118.04
128.30
142.06
159.65
173.92
177.17
163.22
131.77
87.88
38.45
-14.37
-64.07
-109.24
-153.60
-195.39
-229.63
-247.64
-240.96
-205.71
-145.66
-70.22
8.21
80.18
139.73
183.30
209.58
218.02
209.32
184.61
146.81
94.52
35.24
-20.31
-64.96
-97.82
-124.55
-145.85
-158.72
-159.11
-145.73
-114.72
-69.06
-15.43
39.11
83.96
113.62
130.26
140.86
149.69
160.33
166.43
161.09
139.91
102.85
54.83
-0.14
-56.49
-109.28
-158.21
-202.94
-239.43
-262.21
-266.14
-247.84
-208.26
-152.54
-88.36
-22.48
41.08
101.76
157.17
201.74
228.98
233.92
215.75
178.08
127.75
67.93
8.86
-39.07
-71.06
-89.77
-101.80
-113.12
-127.03
-143.39
-160.33
-169.68
-165.54
-145.90
-112.46
-70.00
-25.23
14.64
38.33
41.31
29.94
14.58
3.97
1.66
5.86
11.92
17.03
19.69
21.66
26.96
37.09
50.86
65.33
77.53
85.53
88.87
88.47
82.41
72.09
59.12
44.90
30.72
17.74
6.99
-0.48
-3.80
-1.81
6.66
20.59
36.98
52.00
62.52
67.26
66.89
63.14
57.95
52.88
48.02
42.70
36.47
29.70
23.51
19.05
16.65
15.50
14.19
10.93
4.58
-4.67
-15.26
-24.93
-31.66
-34.56
-34.04
-31.35
-28.01
-25.10
-22.99
-21.39
-19.83
-18.05
-16.12
-14.37
-13.06
-12.19
-11.60
-11.07
-10.50
-9.97
-9.70
-9.90
-10.60
-11.56
-12.36
-12.52
-11.76
-10.10
-7.88
-5.61
-3.75
-2.53
-1.92
-1.67
-1.49
-1.17
-0.65
-0.01
0.58
0.94
0.87
0.27
-0.84
-2.32
-3.87
-5.14
-5.84
-5.87
-5.35
-4.52
-3.68
-3.01
-2.55
-2.21
-1.88
-1.47
-1.02
-0.63
-0.42
-0.45
-0.71
-1.15
-1.68
-2.22
-2.72
-3.12
-3.33
-3.29
-2.97
-2.43
-1.80
-1.27
-0.96
-0.90
-1.01
-1.11
-1.06
-0.82
-0.41
0.03
0.38
0.54
0.47
0.20
-0.23
-0.73
-1.24
-1.71
-2.08
-2.34
-2.45
-2.42
-2.23
-1.90
-1.50
-1.07
-0.69
-0.37
-0.15
-0.01
0.06
0.04
-0.09
-0.32
-0.65
-1.03
-1.41
-1.80
-2.25
-2.83
-3.60
-4.55
-5.57
-6.48
-7.09
-7.29
-7.05
-6.47
-5.69
-4.89
-4.22
-3.76
-3.48
-3.28
-3.02
-2.57
-1.89
-1.04
-0.14
0.70
1.40
1.98
2.48
2.92
3.32
3.65
3.91
4.09
4.26
4.45
4.66
4.87
5.01
5.01
4.87
4.61
4.31
4.03
3.84
3.74
3.70
3.68
3.65
3.59
3.51
3.41
3.28
3.13
2.97
2.88
2.90
3.02
3.17
3.22
3.07
2.66
2.05
1.33
0.60
-0.05
-0.58
-0.95
-1.19
-1.32
-1.44
-1.64
-2.00
-2.50
-3.06
-3.55
-3.90
-4.12
-4.29
-4.50
-4.82
-5.29
-5.92
-6.70
-7.62
-8.59
-9.44
-9.97
-9.99
-9.47
-8.49
-7.26
-6.00
-4.87
-3.90
-3.08
-2.36
-1.73
-1.19
-0.77
-0.43
-0.13
0.16
0.49
0.85
1.19
1.49
1.71
1.83
1.87
1.90
1.94
2.03
2.20
2.42
2.67
2.91
3.12
3.26
3.33
3.29
3.15
2.93
2.67
2.41
2.16
1.92
1.62
1.23
0.75
0.26
-0.19
-0.54
-0.79
-0.99
-1.19
-1.44
-1.72
-2.01
-2.30
-2.55
-2.79
-3.01
-3.23
-3.47
-3.77
-4.17
-4.72
-5.40
-6.12
-6.72
-7.04
-6.96
-6.49
-5.74
-4.88
-4.07
-3.37
-2.78
-2.24
-1.71
-1.18
-0.66
-0.14
0.39
0.96
1.58
2.18
2.69
3.05
3.27
3.40
3.50
3.58
3.62
3.57
3.41
3.17
2.92
2.72
2.63
2.65
2.79
2.99
3.20
3.33
3.32
3.15
2.88
2.61
2.44
2.38
2.40
2.42
2.38
2.29
2.20
2.11
2.00
1.77
1.35
0.76
0.08
-0.54
-0.98
-1.23
-1.34
-1.41
-1.55
-1.82
-2.26
-2.85
-3.57
-4.30
-4.95
-5.44
-5.77
-6.03
-6.33
-6.76
-7.27
-7.72
-7.93
-7.80
-7.33
-6.64
-5.85
-5.05
-4.23
-3.30
-2.26
-1.17
-0.17
0.56
0.97
1.10
1.13
1.24
1.57
2.09
2.68
3.18
3.47
3.56
3.52
3.51
3.62
3.91
4.34
4.80
5.20
5.44
5.46
5.27
4.92
4.49
4.07
3.72
3.45
3.22
2.97
2.69
2.38
2.07
1.77
1.49
1.19
0.89
0.63
0.47
0.42
0.44
0.41
0.24
-0.10
-0.57
-1.04
-1.42
-1.70
-1.92
-2.19
-2.56
-3.03
-3.52
-3.97
-4.36
-4.70
-5.05
-5.43
-5.83
-6.16
-6.35
-6.32
-6.05
-5.53
-4.79
-3.88
-2.88
-1.87
-0.94
-0.13
0.55
1.14
1.65
2.10
2.50
2.85
3.20
3.58
3.99
4.38
4.70
4.88
4.95
4.95
4.96
5.02
5.10
5.14
5.09
4.97
4.85
4.80
4.86
4.98
5.12
5.22
5.22
5.12
4.93
4.67
4.36
4.06
3.77
3.50
3.24
2.93
2.54
2.03
1.45
0.85
0.30
-0.15
-0.46
-0.64
-0.69
-0.63
-0.46
-0.28
-0.19
-0.34
-0.80
-1.59
-2.55
-3.53
-4.35
-4.96
-5.40
-5.80
-6.26
-6.84
-7.51
-8.20
-8.82
-9.26
-9.44
-9.26
-8.69
-7.73
-6.50
-5.17
-3.94
-2.93
-2.16
-1.59
-1.07
-0.51
0.16
0.88
1.54
2.04
2.32
2.43
2.50
2.64
2.91
3.26
3.60
3.86
4.02
4.13
4.26
4.43
4.59
4.69
4.66
4.52
4.34
4.17
4.05
3.97
3.93
3.89
3.83
3.71
3.49
3.17
2.74
2.29
1.93
1.73
1.68
1.72
1.71
1.59
1.32
1.00
0.71
0.48
0.27
0.00
-0.39
-0.90
-1.42
-1.82
-2.02
-2.07
-2.08
-2.19
-2.41
-2.69
-2.94
-3.13
-3.32
-3.66
-4.25
-5.06
-5.93
-6.65
-7.06
-7.15
-7.01
-6.78
-6.49
-6.11
-5.57
-4.83
-3.92
-2.92
-1.93
-1.03
-0.23
0.42
0.90
1.15
1.18
1.05
0.89
0.82
0.92
1.19
1.60
2.11
2.68
3.25
3.75
4.09
4.19
4.06
3.80
3.56
3.47
3.51
3.60
3.60
3.46
3.24
3.03
2.93
2.90
2.86
2.70
2.38
1.93
1.44
0.98
0.58
0.23
-0.07
-0.31
-0.46
-0.52
-0.51
-0.50
-0.55
-0.68
-0.86
-1.04
-1.17
-1.30
-1.49
-1.83
-2.35
-3.01
-3.74
-4.47
-5.18
-5.91
-6.71
-7.57
-8.37
-8.93
-9.09
-8.77
-8.00
-6.97
-5.88
-4.87
-3.96
-3.08
-2.15
-1.16
-0.16
0.74
1.43
1.89
2.18
2.39
2.65
3.03
3.53
4.09
4.62
5.03
5.22
5.16
4.88
4.48
4.10
3.90
3.95
4.23
4.67
5.15
5.53
5.73
5.68
5.36
4.85
4.26
3.74
3.43
3.35
3.45
3.62
3.73
3.74
3.66
3.52
3.30
2.93
2.39
1.69
0.96
0.39
0.09
0.06
0.20
0.35
0.40
0.33
0.19
0.00
-0.22
-0.53
-0.95
-1.47
-2.04
-2.62
-3.17
-3.70
-4.23
-4.79
-5.39
-6.05
-6.76
-7.49
-8.12
-8.50
-8.45
-7.86
-6.75
-5.32
-3.80
-2.43
-1.36
-0.63
-0.20
-0.02
0.03
0.04
0.12
0.37
0.79
1.33
1.84
2.25
2.55
2.79
3.08
3.45
3.86
4.23
4.49
4.67
4.80
4.96
5.13
5.28
5.35
5.33
5.24
5.14
5.05
4.97
4.89
4.75
4.52
4.19
3.74
3.16
2.51
1.87
1.32
0.95
0.73
0.62
0.50
0.33
0.10
-0.10
-0.19
-0.13
0.02
0.14
0.12
-0.10
-0.48
-0.92
-1.34
-1.72
-2.08
-2.53
-3.12
-3.87
-4.71
-5.53
-6.22
-6.73
-7.03
-7.13
-7.06
-6.83
-6.43
-5.87
-5.12
-4.21
-3.19
-2.15
-1.17
-0.34
0.33
0.82
1.13
1.27
1.24
1.08
0.86
0.72
0.76
1.06
1.61
2.31
3.02
3.62
4.04
4.29
4.43
4.56
4.74
5.00
5.25
5.38
5.27
4.89
4.30
3.64
3.04
2.58
2.25
1.98
1.71
1.44
1.23
1.15
1.23
1.39
1.54
1.59
1.54
1.40
1.23
1.04
0.79
0.43
-0.09
-0.76
-1.51
-2.26
-2.91
-3.46
-3.94
-4.42
-4.94
-5.53
-6.16
-6.76
-7.28
-7.66
-7.87
-7.93
-7.84
-7.64
-7.32
-6.86
-6.22
-5.38
-4.37
-3.33
-2.42
-1.76
-1.36
-1.09
-0.78
-0.28
0.39
1.12
1.74
2.13
2.33
2.49
2.75
3.20
3.76
4.30
4.70
4.92
5.03
5.11
5.21
5.32
5.35
5.21
4.87
4.40
3.90
3.48
3.20
3.04
2.93
2.81
2.65
2.48
2.34
2.23
2.12
1.95
1.68
1.28
0.81
0.37
0.03
-0.14
-0.15
-0.07
-0.00
-0.04
-0.27
-0.72
-1.36
-2.11
-2.87
-3.59
-4.23
-4.77
-5.24
-5.65
-6.00
-6.31
-6.57
-6.78
-6.87
-6.80
-6.50
-5.97
-5.28
-4.55
-3.87
-3.30
-2.83
-2.40
-1.98
-1.56
-1.16
-0.78
-0.41
-0.00
0.49
1.06
1.64
2.12
2.44
2.58
2.62
2.70
2.90
3.22
3.61
3.94
4.14
4.17
4.09
3.97
3.86
3.77
3.67
3.54
3.37
3.20
3.07
3.00
2.93
2.78
2.46
1.98
1.35
0.68
0.08
-0.39
-0.69
-0.84
-0.90
-0.98
-1.18
-1.52
-2.00
-2.52
-3.03
-3.49
-3.95
-4.48
-5.15
-5.93
-6.73
-7.42
-7.84
-7.92
-7.62
-6.97
-6.04
-4.95
-3.81
-2.71
-1.74
-0.90
-0.22
0.31
0.74
1.12
1.54
2.06
2.70
3.39
4.01
4.43
4.58
4.54
4.46
4.46
4.63
4.94
5.28
5.56
5.70
5.72
5.66
5.54
5.38
5.20
5.04
4.93
4.92
4.97
5.00
4.94
4.72
4.40
4.08
3.88
3.85
3.96
4.07
4.05
3.83
3.45
3.04
2.74
2.60
2.61
2.69
2.78
2.83
2.85
2.87
2.93
3.02
3.16
3.32
3.51
3.68
3.77
3.75
3.62
3.54
3.74
4.44
5.82
7.84
10.32
12.96
15.45
17.53
19.01
19.79
19.84
19.27
18.32
17.28
16.39
15.67
14.91
13.73
11.82
9.06
5.62
1.88
-1.80
-5.15
-8.08
-10.59
-12.70
-14.36
-15.55
-16.34
-16.89
-17.47
-18.28
-19.40
-20.75
-22.09
-23.18
-23.78
-23.79
-23.24
-22.26
-21.10
-19.98
-19.07
-18.40
-17.89
-17.35
-16.66
-15.76
-14.75
-13.79
-13.08
-12.69
-12.61
-12.68
-12.73
-12.64
-12.39
-12.09
-11.91
-12.00
-12.43
-13.15
-14.03
-14.90
-15.68
-16.36
-17.01
-17.70
-18.42
-19.08
-19.51
-19.55
-19.07
-18.02
-16.40
-14.20
-11.45
-8.19
-4.57
-0.92
2.35
4.84
6.34
6.99
7.29
7.93
9.54
12.46
16.60
21.46
26.35
30.64
33.87
35.88
36.66
36.30
34.90
32.57
29.50
25.96
22.29
18.76
15.55
12.70
10.11
7.71
5.48
3.51
1.92
0.80
0.16
-0.12
-0.21
-0.31
-0.54
-0.92
-1.37
-1.76
-1.97
-1.98
-1.85
-1.73
-1.75
-1.99
-2.41
-2.89
-3.31
-3.59
-3.75
-3.85
-3.97
-4.19
-4.52
-4.97
-5.46
-5.92
-6.21
-6.24
-5.93
-5.32
-4.49
-3.54
-2.57
-1.65
-0.82
-0.11
0.47
0.89
1.12
1.16
1.03
0.83
0.63
0.54
0.57
0.71
0.85
0.92
0.93
0.96
1.13
1.51
2.07
2.69
3.20
3.51
3.63
3.64
3.62
3.60
3.53
3.37
3.10
2.74
2.32
1.90
1.46
1.00
0.48
-0.09
-0.68
-1.22
-1.64
-1.89
-1.97
-1.96
-1.94
-2.02
-2.21
-2.43
-2.59
-2.63
-2.58
-2.57
-2.75
-3.21
-3.89
-4.65
-5.27
-5.59
-5.54
-5.12
-4.45
-3.66
-2.90
-2.25
-1.74
-1.33
-0.94
-0.47
0.11
0.82
1.60
2.38
3.11
3.74
4.24
4.59
4.77
4.78
4.65
4.42
4.18
3.99
3.92
4.05
4.39
4.90
5.44
5.89
6.09
5.99
5.61
5.07
4.51
4.04
3.71
3.51
3.39
3.27
3.10
2.83
2.46
1.99
1.48
1.01
0.62
0.34
0.10
-0.18
-0.59
-1.13
-1.75
-2.35
-2.86
-3.28
-3.68
-4.12
-4.63
-5.19
-5.76
-6.29
-6.79
-7.27
-7.68
-7.92
-7.87
-7.43
-6.62
-5.58
-4.50
-3.54
-2.79
-2.18
-1.61
-0.99
-0.30
0.44
1.17
1.83
2.43
2.96
3.40
3.75
3.99
4.12
4.22
4.33
4.51
4.77
5.06
5.34
5.56
5.74
5.90
6.05
6.18
6.23
6.16
5.97
5.68
5.30
4.89
4.46
4.05
3.69
3.42
3.25
3.14
3.02
2.84
2.59
2.33
2.13
2.02
1.94
1.81
1.54
1.17
0.80
0.59
0.61
0.79
0.96
0.90
0.51
-0.18
-1.00
-1.75
-2.30
-2.66
-2.92
-3.26
-3.77
-4.48
-5.32
-6.21
-7.06
-7.83
-8.46
-8.89
-9.03
-8.79
-8.16
-7.21
-6.07
-4.92
-3.86
-2.98
-2.22
-1.53
-0.84
-0.14
0.53
1.13
1.64
2.09
2.52
2.95
3.38
3.72
3.92
3.95
3.90
3.87
3.99
4.23
4.49
4.61
4.45
4.05
3.55
3.16
3.00
3.09
3.32
3.52
3.57
3.41
3.07
2.62
2.11
1.62
1.18
0.87
0.73
0.74
0.85
0.91
0.80
0.44
-0.16
-0.90
-1.64
-2.27
-2.76
-3.14
-3.47
-3.82
-4.20
-4.61
-5.09
-5.68
-6.40
-7.18
-7.87
-8.24
-8.13
-7.50
-6.44
-5.17
-3.89
-2.78
-1.90
-1.27
-0.84
-0.55
-0.32
-0.07
0.27
0.74
1.31
1.92
2.47
2.92
3.23
3.46
3.66
3.89
4.16
4.47
4.80
5.08
5.24
5.24
5.06
4.74
4.37
4.04
3.86
3.83
3.89
3.90
3.76
3.43
3.00
2.60
2.35
2.32
2.43
2.54
2.49
2.20
1.70
1.10
0.55
0.17
-0.03
-0.11
-0.20
-0.37
-0.64
-0.97
-1.29
-1.58
-1.88
-2.27
-2.78
-3.39
-3.98
-4.43
-4.69
-4.77
-4.81
-4.91
-5.14
-5.51
-5.97
-6.45
-6.87
-7.14
-7.17
-6.87
-6.21
-5.28
-4.24
-3.28
-2.54
-2.05
-1.70
-1.33
-0.81
-0.12
0.70
1.52
2.20
2.66
2.89
2.97
3.00
3.07
3.24
3.51
3.81
4.09
4.35
4.59
4.86
5.14
5.36
5.41
5.22
4.80
4.27
3.78
3.45
3.33
3.36
3.42
3.42
3.32
3.16
2.97
2.82
2.69
2.56
2.37
2.07
1.67
1.21
0.77
0.41
0.15
-0.08
-0.33
-0.67
-1.07
-1.46
-1.77
-1.99
-2.19
-2.45
-2.79
-3.19
-3.55
-3.84
-4.14
-4.59
-5.32
-6.33
-7.40
-8.21
-8.47
-8.07
-7.12
-5.90
-4.70
-3.71
-2.95
-2.38
-1.93
-1.60
-1.41
-1.35
-1.33
-1.25
-0.97
-0.44
0.30
1.13
1.92
2.56
3.02
3.30
3.45
3.50
3.52
3.54
3.61
3.77
3.97
4.13
4.13
3.90
3.48
2.99
2.62
2.49
2.60
2.83
3.01
3.01
2.79
2.42
1.99
1.60
1.26
0.95
0.66
0.43
0.25
0.12
-0.04
-0.33
-0.80
-1.41
-2.04
-2.58
-2.97
-3.24
-3.46
-3.71
-4.04
-4.42
-4.82
-5.22
-5.65
-6.17
-6.80
-7.49
-8.11
-8.46
-8.40
-7.89
-7.00
-5.93
-4.87
-4.01
-3.39
-2.97
-2.65
-2.33
-1.95
-1.47
-0.92
-0.31
0.34
0.98
1.58
2.08
2.46
2.76
3.03
3.34
3.72
4.14
4.52
4.76
4.83
4.74
4.58
4.48
4.51
4.65
4.83
4.90
4.77
4.42
3.96
3.54
3.32
3.35
3.57
3.84
4.01
3.98
3.74
3.34
2.85
2.32
1.80
1.29
0.81
0.36
-0.04
-0.39
-0.67
-0.89
-1.07
-1.23
-1.41
-1.67
-1.99
-2.33
-2.64
-2.90
-3.12
-3.41
-3.85
-4.52
-5.39
-6.36
-7.30
-8.08
-8.60
-8.81
-8.66
-8.16
-7.35
-6.30
-5.13
-3.98
-2.96
-2.13
-1.47
-0.95
-0.53
-0.16
0.18
0.51
0.86
1.24
1.67
2.12
2.56
2.98
3.35
3.63
3.82
3.90
3.86
3.75
3.63
3.58
3.62
3.72
3.79
3.75
3.56
3.26
2.94
2.65
2.40
2.16
1.89
1.60
1.37
1.32
1.49
1.79
2.06
2.07
1.67
0.84
-0.26
-1.41
-2.35
-2.96
-3.22
-3.26
-3.26
-3.38
-3.67
-4.12
-4.68
-5.32
-6.01
-6.71
-7.28
-7.52
-7.23
-6.36
-5.03
-3.56
-2.27
-1.37
-0.89
-0.65
-0.50
-0.31
-0.13
-0.01
-0.00
-0.05
-0.04
0.10
0.38
0.69
0.96
1.15
1.34
1.63
2.09
2.68
3.25
3.64
3.72
3.50
3.12
2.79
2.63
2.67
2.83
2.98
3.01
2.88
2.65
2.42
2.25
2.16
2.09
1.99
1.78
1.49
1.16
0.84
0.57
0.39
0.28
0.22
0.17
0.07
-0.13
-0.46
-0.94
-1.53
-2.16
-2.72
-3.14
-3.41
-3.61
-3.87
-4.30
-4.96
-5.79
-6.65
-7.35
-7.78
-7.82
-7.47
-6.77
-5.79
-4.61
-3.34
-2.10
-1.01
-0.16
0.40
0.74
0.95
1.14
1.39
1.73
2.15
2.60
3.09
3.62
4.15
4.64
5.01
5.20
5.24
5.20
5.19
5.28
5.47
5.68
5.79
5.73
5.49
5.14
4.77
4.46
4.22
4.05
3.95
3.92
3.97
4.05
4.07
3.94
3.65
3.22
2.79
2.48
2.33
2.27
2.16
1.86
1.33
0.65
-0.03
-0.58
-0.96
-1.23
-1.50
-1.85
-2.31
-2.88
-3.53
-4.27
-5.09
-5.91
-6.61
-7.03
-7.06
-6.66
-5.92
-4.99
-4.02
-3.16
-2.46
-1.92
-1.48
-1.06
-0.56
0.08
0.82
1.54
2.10
2.43
2.53
2.53
2.57
2.70
2.91
3.14
3.35
3.61
3.98
4.49
5.04
5.47
5.60
5.40
4.95
4.41
3.94
3.61
3.39
3.24
3.11
3.00
2.87
2.66
2.32
1.82
1.18
0.54
0.02
-0.33
-0.54
-0.70
-0.93
-1.24
-1.60
-1.93
-2.17
-2.40
-2.71
-3.25
-4.01
-4.92
-5.83
-6.62
-7.23
-7.70
-8.09
-8.39
-8.51
-8.37
-7.90
-7.16
-6.30
-5.45
-4.70
-4.02
-3.37
-2.68
-1.96
-1.22
-0.52
0.12
0.68
1.17
1.59
1.95
2.28
2.61
3.03
3.54
4.11
4.63
5.01
5.19
5.22
5.17
5.13
5.13
5.12
5.02
4.80
4.48
4.17
3.98
4.00
4.20
4.49
4.72
4.76
4.61
4.33
4.02
3.77
3.61
3.50
3.36
3.11
2.74
2.28
1.78
1.31
0.88
0.49
0.14
-0.18
-0.49
-0.78
-1.08
-1.42
-1.83
-2.32
-2.87
-3.45
-4.01
-4.51
-4.94
-5.34
-5.79
-6.35
-7.04
-7.79
-8.46
-8.90
-9.00
-8.74
-8.17
-7.39
-6.49
-5.55
-4.59
-3.63
-2.73
-1.92
-1.26
-0.79
-0.48
-0.28
-0.10
0.13
0.43
0.77
1.08
1.30
1.43
1.58
1.88
2.40
3.13
3.93
4.62
5.08
5.31
5.40
5.45
5.48
5.43
5.20
4.77
4.22
3.71
3.35
3.13
2.91
2.53
1.92
1.18
0.47
-0.00
-0.18
-0.16
-0.15
-0.32
-0.77
-1.45
-2.21
-2.90
-3.44
-3.82
-4.11
-4.42
-4.84
-5.43
-6.12
-6.81
-7.31
-7.48
-7.24
-6.61
-5.70
-4.65
-3.60
-2.64
-1.84
-1.22
-0.80
-0.56
-0.49
-0.51
-0.57
-0.58
-0.47
-0.21
0.23
0.83
1.53
2.21
2.75
3.05
3.08
2.90
2.67
2.55
2.66
3.03
3.55
4.07
4.45
4.60
4.55
4.36
4.12
3.87
3.63
3.36
3.02
2.59
2.07
1.50
0.92
0.38
-0.10
-0.54
-1.00
-1.52
-2.13
-2.82
-3.57
-4.35
-5.10
-5.71
-6.10
-6.14
-5.76
-4.96
-3.85
-2.61
-1.42
-0.44
0.31
0.82
1.15
1.37
1.50
1.58
1.64
1.78
2.07
2.54
3.14
3.73
4.16
4.35
4.34
4.27
4.31
4.54
4.89
5.23
5.40
5.32
5.02
4.61
4.22
3.93
3.76
3.67
3.59
3.46
3.24
2.95
2.61
2.28
1.98
1.68
1.32
0.82
0.16
-0.63
-1.45
-2.19
-2.81
-3.36
-3.92
-4.62
-5.52
-6.58
-7.71
-8.76
-9.58
-10.07
-10.15
-9.78
-9.03
-8.00
-6.82
-5.61
-4.43
-3.31
-2.25
-1.27
-0.40
0.30
0.85
1.32
1.84
2.50
3.31
4.15
4.87
5.36
5.58
5.63
5.64
5.75
5.96
6.22
6.42
6.48
6.38
6.20
6.01
5.88
5.78
5.66
5.49
5.28
5.10
5.00
4.96
4.90
4.70
4.29
3.70
3.03
2.37
1.77
1.19
0.55
-0.19
-1.05
-1.97
-2.87
-3.69
-4.40
-4.95
-5.31
-5.52
-5.63
-5.77
-6.11
-6.75
-7.72
-8.92
-10.13
-11.12
-11.69
-11.72
-11.20
-10.18
-8.79
-7.20
-5.55
-4.00
-2.63
-1.53
-0.68
-0.04
0.50
1.01
1.54
2.08
2.59
3.01
3.33
3.59
3.87
4.24
4.72
5.27
5.82
6.29
6.62
6.79
6.78
6.59
6.23
5.72
5.10
4.43
3.79
3.24
2.82
2.52
2.30
2.07
1.75
1.25
0.57
-0.27
-1.14
-1.94
-2.58
-3.05
-3.41
-3.78
-4.27
-4.94
-5.73
-6.54
-7.21
-7.61
-7.65
-7.34
-6.72
-5.87
-4.85
-3.71
-2.51
-1.31
-0.18
0.80
1.60
2.22
2.70
3.08
3.43
3.77
4.11
4.44
4.74
4.99
5.17
5.27
5.27
5.15
4.90
4.52
4.05
3.59
3.23
3.07
3.11
3.30
3.48
3.48
3.20
2.66
2.02
1.48
1.23
1.33
1.67
2.03
2.16
1.89
1.20
0.19
-0.96
-2.07
-3.03
-3.84
-4.54
-5.20
-5.87
-6.55
-7.23
-7.84
-8.34
-8.68
-8.83
-8.76
-8.43
-7.79
-6.81
-5.53
-4.03
-2.51
-1.14
-0.05
0.74
1.34
1.89
2.47
3.09
3.67
4.11
4.39
4.56
4.72
4.92
5.18
5.45
5.67
5.80
5.88
5.93
5.97
5.97
5.88
5.66
5.31
4.87
4.40
3.99
3.67
3.44
3.25
3.05
2.78
2.41
1.93
1.40
0.91
0.51
0.25
0.08
-0.12
-0.47
-1.06
-1.86
-2.74
-3.52
-4.01
-4.19
-4.14
-4.08
-4.21
-4.64
-5.34
-6.16
-6.94
-7.53
-7.82
-7.77
-7.37
-6.61
-5.54
-4.29
-3.04
-1.95
-1.14
-0.57
-0.12
0.37
0.99
1.71
2.43
3.01
3.39
3.60
3.72
3.84
3.99
4.13
4.24
4.32
4.42
4.60
4.86
5.14
5.32
5.29
5.04
4.62
4.12
3.66
3.29
3.06
2.94
2.87
2.81
2.69
2.47
2.12
1.66
1.17
0.69
0.24
-0.23
-0.80
-1.54
-2.43
-3.39
-4.28
-4.99
-5.50
-5.84
-6.14
-6.51
-7.04
-7.73
-8.45
-9.01
-9.20
-8.87
-8.02
-6.82
-5.51
-4.32
-3.32
-2.44
-1.50
-0.43
0.73
1.78
2.53
2.90
3.00
3.06
3.28
3.73
4.29
4.80
5.14
5.28
5.33
5.38
5.51
5.70
5.89
5.96
5.87
5.59
5.18
4.73
4.33
4.04
3.85
3.69
3.47
3.13
2.66
2.16
1.73
1.45
1.33
1.29
1.23
1.02
0.62
0.07
-0.54
-1.06
-1.42
-1.65
-1.86
-2.17
-2.64
-3.19
-3.68
-4.01
-4.18
-4.34
-4.71
-5.44
-6.54
-7.83
-9.04
-9.92
-10.31
-10.15
-9.46
-8.32
-6.87
-5.27
-3.75
-2.53
-1.76
-1.44
-1.38
-1.34
-1.09
-0.52
0.28
1.13
1.83
2.30
2.58
2.78
3.04
3.41
3.86
4.32
4.71
5.01
5.24
5.42
5.55
5.60
5.47
5.14
4.59
3.93
3.30
2.83
2.60
2.57
2.61
2.54
2.28
1.83
1.28
0.81
0.51
0.38
0.33
0.19
-0.15
-0.71
-1.40
-2.09
-2.63
-2.99
-3.19
-3.33
-3.51
-3.84
-4.37
-5.10
-6.01
-6.99
-7.89
-8.49
-8.57
-7.98
-6.75
-5.06
-3.25
-1.63
-0.41
0.35
0.79
1.07
1.31
1.53
1.67
1.68
1.55
1.42
1.43
1.68
2.16
2.76
3.30
3.65
3.81
3.84
3.88
3.97
4.11
4.24
4.27
4.21
4.10
3.98
3.89
3.79
3.62
3.31
2.88
2.38
1.90
1.51
1.20
0.90
0.55
0.08
-0.52
-1.22
-1.98
-2.76
-3.53
-4.30
-5.04
-5.73
-6.34
-6.88
-7.38
-7.89
-8.46
-9.10
-9.74
-10.30
-10.65
-10.64
-10.19
-9.30
-8.02
-6.51
-4.93
-3.43
-2.11
-1.02
-0.13
0.56
1.10
1.53
1.89
2.29
2.81
3.49
4.26
4.99
5.52
5.79
5.83
5.79
5.81
5.94
6.14
6.27
6.20
5.92
5.51
5.12
4.82
4.65
4.52
4.34
4.08
3.79
3.52
3.32
3.16
2.98
2.75
2.47
2.19
2.00
1.92
1.92
1.90
1.71
1.26
0.55
-0.35
-1.29
-2.14
-2.79
-3.25
-3.59
-3.92
-4.31
-4.81
-5.41
-6.12
-6.93
-7.84
-8.78
-9.60
-10.12
-10.14
-9.61
-8.60
-7.34
-6.06
-4.91
-3.91
-2.96
-1.93
-0.76
0.46
1.54
2.32
2.72
2.86
2.91
3.05
3.32
3.63
3.81
3.78
3.60
3.46
3.54
3.91
4.47
5.02
5.38
5.46
5.34
5.16
5.04
5.01
5.02
4.97
4.80
4.54
4.23
3.94
3.70
3.45
3.13
2.62
1.87
0.87
-0.26
-1.33
-2.14
-2.55
-2.50
-2.10
-1.52
-0.97
-0.62
-0.58
-0.86
-1.41
-2.15
-2.96
-3.71
-4.23
-4.42
-4.21
-3.59
-2.69
-1.68
-0.74
-0.02
0.46
0.77
1.03
1.35
1.74
2.11
2.35
2.41
2.34
2.24
2.24
2.42
2.74
3.14
3.58
4.03
4.53
5.08
5.62
6.04
6.20
6.01
5.50
4.77
3.96
3.23
2.65
2.26
2.06
2.02
2.05
2.06
1.94
1.63
1.17
0.65
0.22
-0.05
-0.17
-0.22
-0.32
-0.53
-0.81
-1.07
-1.28
-1.46
-1.73
-2.20
-2.93
-3.86
-4.84
-5.73
-6.42
-6.93
-7.36
-7.83
-8.39
-8.98
-9.44
-9.56
-9.17
-8.25
-6.93
-5.41
-3.93
-2.65
-1.59
-0.70
0.13
0.94
1.74
2.47
3.05
3.47
3.76
3.98
4.19
4.43
4.69
4.94
5.12
5.23
5.27
5.27
5.27
5.30
5.38
5.49
5.62
5.73
5.71
5.51
5.09
4.48
3.77
3.07
2.44
1.89
1.38
0.86
0.33
-0.19
-0.65
-1.08
-1.50
-1.95
-2.40
-2.77
-3.02
-3.14
-3.23
-3.40
-3.75
-4.26
-4.80
-5.23
-5.49
-5.65
-5.86
-6.28
-7.01
-7.98
-9.07
-10.09
-10.87
-11.29
-11.28
-10.84
-10.01
-8.89
-7.64
-6.39
-5.25
-4.23
-3.32
-2.44
-1.54
-0.60
0.35
1.30
2.22
3.07
3.82
4.43
4.84
5.07
5.18
5.25
5.39
5.61
5.90
6.19
6.41
6.55
6.62
6.68
6.75
6.82
6.88
6.86
6.74
6.54
6.25
5.87
5.34
4.62
3.71
2.67
1.64
0.78
0.18
-0.15
-0.32
-0.46
-0.68
-1.04
-1.51
-2.01
-2.48
-2.88
-3.20
-3.47
-3.68
-3.89
-4.16
-4.55
-5.11
-5.86
-6.77
-7.73
-8.64
-9.36
-9.78
-9.84
-9.54
-8.93
-8.06
-6.97
-5.70
-4.35
-3.05
-1.95
-1.17
-0.74
-0.57
-0.48
-0.28
0.14
0.80
1.61
2.45
3.20
3.78
4.17
4.41
4.56
4.70
4.87
5.06
5.21
5.23
5.07
4.73
4.27
3.84
3.53
3.38
3.36
3.35
3.26
3.05
2.73
2.38
2.08
1.86
1.70
1.55
1.35
1.06
0.64
0.12
-0.50
-1.15
-1.76
-2.25
-2.57
-2.79
-3.00
-3.35
-3.88
-4.58
-5.31
-5.95
-6.37
-6.54
-6.47
-6.16
-5.63
-4.87
-3.91
-2.83
-1.76
-0.80
-0.01
0.64
1.21
1.75
2.26
2.71
3.07
3.34
3.60
3.90
4.26
4.59
4.76
4.68
4.38
4.00
3.73
3.70
3.88
4.15
4.35
4.40
4.29
4.07
3.80
3.51
3.22
2.94
2.71
2.52
2.36
2.15
1.83
1.37
0.80
0.17
-0.46
-1.09
-1.71
-2.34
-2.95
-3.53
-4.07
-4.60
-5.20
-5.90
-6.71
-7.57
-8.41
-9.15
-9.75
-10.19
-10.40
-10.29
-9.73
-8.68
-7.21
-5.52
-3.85
-2.38
-1.20
-0.21
0.70
1.64
2.64
3.64
4.60
5.50
6.34
7.15
7.93
8.67
9.33
9.92
10.46
11.00
11.60
12.25
12.96
13.67
14.33
14.92
15.45
15.96
16.49
17.12
17.87
18.77
19.86
21.18
22.78
24.68
26.84
29.16
31.51
33.80
35.99
38.12
40.27
42.53
44.99
47.76
50.96
54.70
58.95
63.45
67.52
70.23
70.67
68.38
63.75
58.05
52.89
49.57
48.37
48.44
48.23
46.23
41.77
35.21
27.68
20.40
14.19
9.14
4.76
0.29
-4.96
-11.37
-18.79
-26.63
-33.81
-39.13
-41.74
-41.42
-38.76
-34.90
-31.21
-28.80
-27.90
-27.37
-24.58
-16.03
1.41
29.01
64.86
103.66
137.80
159.50
163.32
147.82
115.34
70.58
18.54
-37.15
-95.14
-156.13
-222.03
-293.37
-367.52
-438.14
-496.30
-533.18
-543.04
-525.26
-484.39
-429.11
-367.62
-305.39
-244.81
-186.28
-129.62
-74.50
-20.03
35.13
90.99
146.98
200.18
244.49
271.75
274.32
247.80
193.04
115.92
24.67
-68.58
-150.24
-208.35
-235.73
-231.82
-202.39
-156.87
-95.65
-26.69
39.46
94.54
135.87
165.87
187.74
201.75
207.56
206.35
196.62
180.88
163.09
146.33
131.19
116.27
99.76
81.54
63.54
48.48
39.99
40.22
48.91
63.61
81.20
99.19
116.85
134.56
152.85
171.45
188.29
199.94
203.05
196.16
179.85
156.65
123.29
80.18
31.12
-18.30
-62.94
-99.55
-126.45
-143.98
-154.12
-160.29
-165.37
-170.96
-176.21
-177.28
-170.77
-151.65
-118.88
-76.69
-33.32
2.92
26.31
35.50
33.33
24.77
14.53
4.71
-4.81
-14.75
-25.06
-33.79
-38.58
-38.03
-32.49
-23.65
-14.06
-5.71
0.83
6.49
12.71
20.18
28.37
35.73
40.73
42.32
40.69
37.05
33.14
30.44
29.38
29.49
29.74
29.04
26.31
20.67
11.42
-1.57
-17.44
-34.04
-48.15
-56.35
-56.28
-47.78
-32.93
-15.27
1.51
14.67
22.91
26.13
24.81
19.54
10.76
-1.08
-15.15
-30.26
-44.90
-57.54
-66.88
-71.99
-72.36
-67.99
-59.40
-47.38
-33.01
-17.54
-2.37
11.04
21.24
26.97
27.64
23.67
17.12
10.98
8.32
11.08
19.40
31.56
44.69
55.71
62.33
64.30
62.67
59.02
54.51
49.65
44.50
39.04
33.47
28.27
25.34
26.61
33.08
44.06
57.37
70.22
80.15
85.64
86.30
84.31
82.72
