1530318442.00
64.000000
-0.00
-0.00
-0.00
-0.00
-0.00
-0.00
-0.00
-0.00
-0.00
-0.00
0.00
0.01
0.01
-0.00
-0.03
-0.05
-0.05
0.00
0.13
0.36
0.66
1.01
1.37
1.72
2.06
2.40
2.79
3.24
3.80
4.42
5.06
5.66
6.20
6.68
7.15
7.68
8.31
9.14
10.08
11.03
11.89
12.59
13.19
13.82
14.67
15.88
17.66
19.86
22.23
24.53
26.60
28.53
30.59
33.19
36.59
41.16
46.59
52.37
57.98
63.08
67.70
72.27
77.40
83.55
91.24
100.01
109.19
118.00
125.92
132.93
139.48
146.69
153.08
160.91
170.92
183.48
197.70
210.81
218.36
215.38
198.06
165.15
118.99
63.70
4.16
-55.84
-114.45
-171.54
-227.78
-283.61
-338.77
-391.92
-441.72
-486.70
-525.49
-556.72
-579.05
-591.16
-592.02
-581.34
-559.70
-528.91
-491.07
-447.61
-398.56
-342.52
-277.71
-203.63
-122.28
-38.17
42.59
114.38
173.52
218.94
251.53
273.14
285.65
290.62
289.52
283.91
275.42
265.50
255.00
244.13
232.67
220.21
206.54
191.80
176.47
161.25
146.85
133.78
122.22
111.87
102.18
92.54
82.59
72.34
62.17
52.68
44.31
37.26
31.39
26.34
21.73
17.43
13.28
9.35
5.76
2.65
0.11
-1.87
-3.43
-4.72
-5.87
-6.92
-7.83
-8.53
-8.97
-9.17
-9.20
-9.17
-9.11
-9.02
-8.86
-8.60
-8.24
-7.80
-7.31
-6.78
-6.23
-5.68
-5.19
-4.81
-4.58
-4.47
-4.38
-4.20
-3.88
-3.44
-2.95
-2.54
-2.26
-2.10
-2.00
-1.91
-1.79
-1.67
-1.58
-1.54
-1.52
-1.48
-1.37
-1.20
-0.99
-0.78
-0.59
-0.41
-0.23
-0.05
0.10
0.14
0.02
-0.31
-0.84
-1.48
-2.12
-2.64
-2.98
-3.14
-3.16
-3.08
-2.93
-2.74
-2.52
-2.27
-1.99
-1.71
-1.44
-1.21
-1.02
-0.89
-0.78
-0.62
-0.35
0.08
0.65
1.29
1.89
2.36
2.68
2.88
2.99
3.08
3.14
3.16
3.09
2.95
2.69
2.33
1.92
1.48
1.04
0.61
0.18
-0.30
-0.84
-1.44
-2.05
-2.62
-3.07
-3.37
-3.58
-3.74
-3.94
-4.17
-4.41
-4.58
-4.59
-4.43
-4.14
-3.79
-3.43
-3.04
-2.58
-2.02
-1.37
-0.73
-0.21
0.09
0.16
0.07
-0.10
-0.24
-0.37
-0.48
-0.59
-0.66
-0.63
-0.47
-0.18
0.14
0.37
0.47
0.45
0.42
0.46
0.57
0.66
0.63
0.40
0.02
-0.39
-0.65
-0.66
-0.41
-0.01
0.38
0.61
0.58
0.30
-0.15
-0.64
-1.07
-1.36
-1.52
-1.61
-1.71
-1.86
-2.05
-2.27
-2.48
-2.64
-2.76
-2.87
-2.99
-3.16
-3.42
-3.77
-4.19
-4.65
-5.05
-5.31
-5.39
-5.29
-5.07
-4.81
-4.59
-4.41
-4.26
-4.07
-3.79
-3.35
-2.70
-1.78
-0.56
0.91
2.48
3.92
5.02
5.63
5.79
5.62
5.32
5.07
4.94
4.94
5.04
5.20
5.42
5.65
5.88
6.04
6.06
5.91
5.61
5.23
4.90
4.70
4.66
4.71
4.71
4.56
4.17
3.60
2.94
2.30
1.77
1.39
1.15
1.02
0.91
0.73
0.38
-0.20
-0.96
-1.75
-2.41
-2.80
-2.92
-2.86
-2.79
-2.87
-3.20
-3.79
-4.57
-5.40
-6.06
-6.25
-5.72
-4.31
-2.03
0.83
3.85
6.57
8.65
9.97
10.63
10.88
10.95
10.99
11.03
11.02
10.91
10.70
10.43
10.16
9.89
9.55
9.01
8.14
6.88
5.31
3.62
2.04
0.77
-0.12
-0.70
-1.15
-1.69
-2.44
-3.37
-4.35
-5.18
-5.68
-5.80
-5.61
-5.26
-4.92
-4.73
-4.71
-4.82
-4.97
-5.10
-5.17
-5.21
-5.25
-5.31
-5.37
-5.40
-5.38
-5.33
-5.26
-5.23
-5.28
-5.43
-5.69
-6.03
-6.39
-6.71
-6.95
-7.08
-7.16
-7.24
-7.33
-7.42
-7.41
-7.22
-6.80
-6.18
-5.43
-4.64
-3.93
-3.38
-3.06
-2.97
-3.07
-3.24
-3.31
-3.16
-2.71
-2.03
-1.22
-0.43
0.26
0.86
1.41
1.96
2.49
2.95
3.25
3.39
3.39
3.38
3.45
3.67
3.98
4.27
4.44
4.43
4.31
4.16
4.04
3.95
3.85
3.71
3.56
3.45
3.42
3.47
3.51
3.43
3.20
2.83
2.43
2.10
1.87
1.71
1.57
1.41
1.22
1.04
0.90
0.79
0.68
0.52
0.28
-0.05
-0.45
-0.88
-1.30
-1.71
-2.08
-2.40
-2.66
-2.85
-2.96
-2.99
-2.97
-2.95
-2.99
-3.17
-3.53
-4.06
-4.69
-5.30
-5.77
-5.99
-5.93
-5.57
-4.95
-4.12
-3.17
-2.18
-1.22
-0.38
0.31
0.85
1.26
1.54
1.69
1.71
1.65
1.59
1.62
1.79
2.06
2.35
2.58
2.73
2.84
2.99
3.23
3.51
3.71
3.71
3.47
3.06
2.61
2.27
2.05
1.91
1.72
1.42
1.00
0.55
0.18
-0.04
-0.10
-0.08
-0.05
-0.07
-0.21
-0.49
-0.91
-1.40
-1.86
-2.21
-2.38
-2.43
-2.47
-2.66
-3.09
-3.75
-4.53
-5.27
-5.84
-6.17
-6.21
-5.97
-5.46
-4.70
-3.75
-2.69
-1.61
-0.64
0.15
0.71
1.05
1.26
1.46
1.77
2.25
2.83
3.38
3.71
3.73
3.49
3.14
2.84
2.70
2.73
2.82
2.91
2.97
3.00
3.00
2.94
2.72
2.30
1.68
1.00
0.40
-0.01
-0.23
-0.37
-0.57
-0.91
-1.37
-1.85
-2.25
-2.50
-2.62
-2.67
-2.71
-2.74
-2.75
-2.71
-2.60
-2.42
-2.18
-1.89
-1.55
-1.15
-0.73
-0.30
0.08
0.37
0.54
0.60
0.55
0.41
0.14
-0.27
-0.85
-1.56
-2.32
-2.97
-3.38
-3.46
-3.19
-2.65
-1.94
-1.16
-0.35
0.50
1.39
2.25
2.98
3.46
3.63
3.52
3.26
3.02
2.90
2.94
3.09
3.27
3.42
3.54
3.64
3.72
3.79
3.82
3.81
3.74
3.64
3.50
3.29
2.98
2.60
2.20
1.86
1.65
1.61
1.69
1.82
1.94
1.98
1.94
1.82
1.65
1.42
1.15
0.88
0.64
0.47
0.39
0.36
0.31
0.18
-0.08
-0.45
-0.86
-1.25
-1.59
-1.89
-2.18
-2.46
-2.71
-2.87
-2.90
-2.86
-2.84
-2.97
-3.32
-3.88
-4.55
-5.18
-5.64
-5.80
-5.63
-5.11
-4.29
-3.29
-2.24
-1.29
-0.51
0.11
0.62
1.07
1.45
1.70
1.74
1.55
1.23
0.93
0.82
1.02
1.49
2.11
2.71
3.16
3.37
3.34
3.10
2.70
2.22
1.73
1.35
1.17
1.23
1.55
2.02
2.49
2.80
2.82
2.52
2.01
1.44
0.98
0.71
0.59
0.52
0.39
0.12
-0.27
-0.72
-1.14
-1.49
-1.77
-1.96
-2.09
-2.17
-2.23
-2.34
-2.57
-2.95
-3.45
-3.99
-4.51
-4.94
-5.31
-5.65
-5.97
-6.25
-6.39
-6.31
-5.96
-5.35
-4.52
-3.57
-2.56
-1.58
-0.67
0.10
0.73
1.20
1.54
1.75
1.88
1.95
1.99
2.07
2.24
2.50
2.83
3.15
3.37
3.45
3.40
3.28
3.14
3.00
2.85
2.64
2.41
2.19
2.07
2.09
2.23
2.43
2.58
2.63
2.59
2.50
2.38
2.26
2.10
1.88
1.63
1.38
1.22
1.20
1.30
1.45
1.55
1.49
1.19
0.65
-0.05
-0.76
-1.30
-1.56
-1.51
-1.24
-0.94
-0.79
-0.89
-1.24
-1.73
-2.27
-2.85
-3.51
-4.28
-5.16
-6.02
-6.64
-6.84
-6.53
-5.77
-4.76
-3.74
-2.90
-2.29
-1.86
-1.47
-1.01
-0.39
0.31
0.97
1.46
1.72
1.81
1.86
1.98
2.19
2.42
2.58
2.60
2.50
2.40
2.42
2.61
2.94
3.29
3.53
3.53
3.31
2.95
2.56
2.29
2.17
2.17
2.15
2.00
1.67
1.22
0.78
0.47
0.31
0.25
0.18
0.02
-0.25
-0.58
-0.92
-1.27
-1.65
-2.09
-2.63
-3.21
-3.81
-4.35
-4.80
-5.17
-5.48
-5.75
-5.97
-6.11
-6.12
-5.93
-5.47
-4.74
-3.76
-2.64
-1.50
-0.44
0.43
1.10
1.56
1.87
2.09
2.28
2.45
2.60
2.67
2.68
2.66
2.67
2.78
2.98
3.19
3.34
3.38
3.33
3.26
3.23
3.23
3.22
3.13
2.97
2.79
2.65
2.57
2.51
2.38
2.13
1.76
1.34
0.95
0.62
0.40
0.28
0.26
0.31
0.39
0.45
0.41
0.25
-0.01
-0.35
-0.73
-1.15
-1.64
-2.22
-2.85
-3.42
-3.78
-3.83
-3.58
-3.14
-2.76
-2.66
-2.99
-3.78
-4.88
-6.03
-7.00
-7.60
-7.78
-7.57
-7.05
-6.31
-5.43
-4.47
-3.49
-2.56
-1.74
-1.08
-0.56
-0.16
0.16
0.42
0.63
0.77
0.82
0.76
0.62
0.45
0.30
0.18
0.09
0.04
0.04
0.13
0.35
0.71
1.19
1.70
2.20
2.65
3.09
3.60
4.20
4.90
5.59
6.14
6.41
6.34
5.94
5.34
4.70
4.16
3.80
3.63
3.54
3.40
3.10
2.59
1.92
1.22
0.57
0.03
-0.43
-0.86
-1.32
-1.83
-2.37
-2.93
-3.48
-4.00
-4.46
-4.77
-4.84
-4.57
-3.93
-2.94
-1.71
-0.39
0.86
1.87
2.54
2.83
2.78
2.52
2.20
1.96
1.86
1.92
2.08
2.28
2.45
2.58
2.62
2.58
2.45
2.28
2.13
2.08
2.22
2.57
3.05
3.53
3.85
3.90
3.66
3.24
2.77
2.35
2.00
1.67
1.30
0.87
0.41
0.00
-0.29
-0.47
-0.59
-0.73
-0.92
-1.11
-1.23
-1.27
-1.24
-1.26
-1.42
-1.79
-2.33
-2.92
-3.43
-3.74
-3.84
-3.80
-3.76
-3.88
-4.29
-5.02
-5.96
-6.94
-7.73
-8.15
-8.11
-7.64
-6.81
-5.76
-4.60
-3.39
-2.21
-1.11
-0.16
0.59
1.12
1.46
1.71
1.98
2.33
2.77
3.19
3.46
3.50
3.32
3.09
2.98
3.13
3.51
3.99
4.38
4.57
4.56
4.42
4.25
4.08
3.89
3.66
3.39
3.11
2.86
2.64
2.42
2.16
1.86
1.58
1.37
1.26
1.20
1.12
0.95
0.71
0.48
0.39
0.50
0.80
1.17
1.42
1.38
1.00
0.33
-0.46
-1.16
-1.62
-1.81
-1.81
-1.79
-1.90
-2.22
-2.72
-3.29
-3.85
-4.35
-4.85
-5.42
-6.07
-6.75
-7.27
-7.44
-7.12
-6.34
-5.26
-4.10
-3.05
-2.15
-1.35
-0.55
0.30
1.17
1.96
2.55
2.88
3.01
3.03
3.06
3.17
3.36
3.57
3.73
3.81
3.81
3.77
3.74
3.75
3.81
3.89
3.94
3.94
3.91
3.86
3.82
3.74
3.59
3.32
2.94
2.52
2.17
1.94
1.84
1.75
1.58
1.26
0.84
0.43
0.13
-0.02
-0.06
-0.11
-0.26
-0.57
-1.01
-1.53
-2.08
-2.61
-3.11
-3.56
-3.97
-4.31
-4.60
-4.88
-5.18
-5.54
-5.96
-6.44
-6.91
-7.27
-7.41
-7.23
-6.64
-5.64
-4.30
-2.76
-1.23
0.06
0.99
1.52
1.79
1.98
2.25
2.67
3.15
3.56
3.77
3.79
3.71
3.67
3.74
3.90
4.03
4.03
3.87
3.60
3.35
3.19
3.17
3.23
3.33
3.42
3.49
3.50
3.42
3.19
2.81
2.34
1.87
1.52
1.36
1.37
1.49
1.64
1.78
1.88
1.97
2.04
2.07
1.98
1.74
1.30
0.69
-0.03
-0.75
-1.34
-1.72
-1.85
-1.76
-1.55
-1.32
-1.17
-1.14
-1.26
-1.52
-1.90
-2.38
-2.89
-3.38
-3.80
-4.15
-4.48
-4.84
-5.29
-5.80
-6.28
-6.64
-6.79
-6.66
-6.25
-5.58
-4.69
-3.68
-2.63
-1.66
-0.84
-0.21
0.28
0.67
1.01
1.34
1.63
1.87
2.05
2.20
2.33
2.47
2.61
2.75
2.89
3.05
3.22
3.36
3.45
3.42
3.25
2.99
2.72
2.55
2.51
2.59
2.71
2.76
2.64
2.33
1.87
1.36
0.95
0.72
0.70
0.81
0.94
0.96
0.82
0.54
0.15
-0.26
-0.67
-1.07
-1.47
-1.84
-2.15
-2.35
-2.42
-2.42
-2.39
-2.46
-2.72
-3.21
-3.95
-4.85
-5.78
-6.60
-7.14
-7.32
-7.11
-6.59
-5.84
-4.96
-4.02
-3.03
-2.00
-0.98
-0.03
0.77
1.36
1.74
1.93
2.03
2.10
2.20
2.35
2.55
2.80
3.09
3.36
3.54
3.54
3.37
3.08
2.82
2.75
2.95
3.35
3.77
4.00
3.91
3.51
2.94
2.39
2.02
1.91
2.00
2.17
2.29
2.26
2.09
1.82
1.54
1.34
1.25
1.24
1.25
1.19
0.99
0.65
0.19
-0.34
-0.89
-1.41
-1.89
-2.29
-2.61
-2.84
-2.96
-2.98
-2.94
-2.94
-3.06
-3.37
-3.86
-4.47
-5.10
-5.65
-6.12
-6.54
-6.91
-7.20
-7.29
-7.05
-6.41
-5.39
-4.13
-2.83
-1.67
-0.74
-0.06
0.43
0.80
1.11
1.42
1.75
2.09
2.41
2.68
2.87
2.97
3.02
3.06
3.14
3.27
3.45
3.69
3.97
4.27
4.54
4.68
4.61
4.32
3.88
3.40
3.02
2.80
2.71
2.68
2.60
2.43
2.18
1.91
1.66
1.44
1.24
1.04
0.84
0.69
0.60
0.58
0.56
0.48
0.29
-0.03
-0.39
-0.73
-1.02
-1.31
-1.67
-2.15
-2.77
-3.45
-4.10
-4.69
-5.18
-5.62
-6.00
-6.32
-6.56
-6.68
-6.70
-6.61
-6.36
-5.86
-5.00
-3.76
-2.24
-0.67
0.66
1.54
1.86
1.70
1.23
0.69
0.29
0.16
0.32
0.74
1.31
1.89
2.38
2.68
2.77
2.65
2.41
2.13
1.92
1.84
1.87
1.94
1.92
1.69
1.22
0.57
-0.10
-0.58
-0.72
-0.46
0.12
0.84
1.54
2.14
2.62
3.06
3.49
3.91
4.24
4.41
4.38
4.23
4.07
4.00
4.05
4.13
4.11
3.84
3.27
2.42
1.42
0.40
-0.52
-1.30
-1.92
-2.43
-2.87
-3.29
-3.72
-4.21
-4.79
-5.51
-6.37
-7.27
-8.03
-8.45
-8.35
-7.71
-6.66
-5.44
-4.30
-3.35
-2.61
-1.99
-1.37
-0.71
-0.01
0.70
1.39
2.04
2.66
3.24
3.79
4.36
4.97
5.66
6.37
7.00
7.43
7.63
7.66
7.70
7.96
8.53
9.32
10.09
10.55
10.54
10.09
9.50
9.20
9.54
10.63
12.33
14.26
15.97
17.16
17.80
18.17
18.87
20.74
24.57
30.78
39.03
48.01
55.54
59.09
56.44
46.36
29.06
6.21
-19.31
-43.98
-64.35
-77.84
-83.30
-81.27
-73.68
-63.17
-52.17
-42.32
-34.29
-28.06
-23.42
-20.23
-18.41
-17.70
-17.60
-17.39
-16.44
-14.56
-12.03
-9.45
-7.36
-5.98
-5.14
-4.43
-3.47
-2.10
-0.46
1.14
2.37
3.05
3.22
3.04
2.78
2.62
2.68
2.96
3.40
3.91
4.37
4.67
4.77
4.67
4.49
4.35
4.35
4.49
4.67
4.73
4.55
4.10
3.45
2.77
2.21
1.86
1.72
1.69
1.67
1.57
1.35
1.02
0.59
0.06
-0.55
-1.25
-2.01
-2.76
-3.46
-4.09
-4.69
-5.26
-5.77
-6.15
-6.26
-6.01
-5.40
-4.50
-3.41
-2.24
-1.03
0.15
1.28
2.30
3.17
3.86
4.37
4.70
4.93
5.09
5.25
5.43
5.67
5.94
6.20
6.37
6.42
6.35
6.22
6.09
5.99
5.95
5.97
6.02
6.11
6.18
6.17
6.03
5.70
5.22
4.65
4.12
3.74
3.56
3.56
3.64
3.69
3.59
3.30
2.84
2.27
1.70
1.18
0.74
0.36
-0.04
-0.52
-1.07
-1.67
-2.25
-2.79
-3.29
-3.76
-4.23
-4.73
-5.27
-5.86
-6.49
-7.15
-7.77
-8.27
-8.54
-8.47
-8.01
-7.17
-5.97
-4.50
-2.86
-1.19
0.35
1.60
2.47
2.96
3.20
3.33
3.49
3.73
4.02
4.28
4.48
4.62
4.75
4.91
5.10
5.30
5.47
5.56
5.54
5.40
5.13
4.78
4.41
4.10
3.89
3.76
3.66
3.54
3.39
3.22
3.05
2.86
2.58
2.12
1.46
0.70
-0.04
-0.60
-0.94
-1.12
-1.26
-1.51
-1.95
-2.56
-3.25
-3.93
-4.51
-4.94
-5.22
-5.37
-5.38
-5.26
-4.96
-4.43
-3.64
-2.58
-1.28
0.13
1.52
2.73
3.66
4.26
4.57
4.66
4.60
4.51
4.45
4.47
4.60
4.80
5.01
5.14
5.09
4.84
4.43
3.97
3.59
3.39
3.40
3.54
3.68
3.72
3.58
3.33
3.04
2.82
2.69
2.59
2.39
2.00
1.42
0.78
0.23
-0.13
-0.33
-0.49
-0.74
-1.13
-1.58
-1.97
-2.22
-2.36
-2.55
-2.94
-3.62
-4.53
-5.54
-6.53
-7.41
-8.17
-8.78
-9.21
-9.35
-9.11
-8.50
-7.59
-6.51
-5.40
-4.34
-3.35
-2.45
-1.63
-0.92
-0.31
0.18
0.59
0.92
1.19
1.41
1.59
1.76
1.95
2.18
2.46
2.81
3.24
3.74
4.34
5.01
5.73
6.43
7.01
7.43
7.63
7.62
7.45
7.16
6.83
6.50
6.19
5.90
5.60
5.26
4.86
4.40
3.89
3.38
2.91
2.48
2.09
1.68
1.19
0.60
-0.09
-0.81
-1.49
-2.08
-2.57
-2.98
-3.32
-3.62
-3.86
-4.08
-4.33
-4.70
-5.26
-5.99
-6.81
-7.58
-8.10
-8.24
-7.94
-7.23
-6.24
-5.12
-4.00
-2.90
-1.81
-0.66
0.54
1.73
2.78
3.56
4.01
4.17
4.12
3.98
3.83
3.69
3.58
3.52
3.54
3.68
3.89
4.13
4.33
4.43
4.45
4.40
4.33
4.21
4.05
3.84
3.57
3.27
2.99
2.74
2.53
2.35
2.18
1.98
1.76
1.51
1.23
0.92
0.60
0.24
-0.16
-0.62
-1.14
-1.68
-2.19
-2.63
-2.96
-3.20
-3.40
-3.62
-3.93
-4.39
-5.05
-5.92
-6.99
-8.16
-9.25
-10.03
-10.29
-9.87
-8.75
-7.04
-4.98
-2.85
-0.93
0.61
1.72
2.44
2.88
3.14
3.31
3.41
3.47
3.54
3.68
3.91
4.23
4.56
4.78
4.83
4.71
4.49
4.29
4.18
4.16
4.18
4.19
4.16
4.12
4.08
3.99
3.77
3.29
2.53
1.54
0.49
-0.41
-0.98
-1.15
-0.97
-0.58
-0.12
0.25
0.46
0.51
0.41
0.18
-0.11
-0.43
-0.74
-1.03
-1.31
-1.61
-1.96
-2.35
-2.74
-3.09
-3.35
-3.52
-3.68
-3.93
-4.33
-4.88
-5.48
-6.04
-6.42
-6.60
-6.61
-6.59
-6.65
-6.91
-7.38
-8.01
-8.61
-8.99
-8.95
-8.39
-7.32
-5.86
-4.23
-2.62
-1.21
-0.08
0.74
1.27
1.57
1.74
1.88
2.06
2.36
2.75
3.21
3.64
3.97
4.16
4.19
4.10
3.96
3.85
3.84
3.96
4.19
4.45
4.63
4.67
4.53
4.26
3.90
3.50
3.05
2.56
2.04
1.59
1.27
1.13
1.16
1.23
1.20
0.98
0.59
0.09
-0.40
-0.84
-1.24
-1.67
-2.18
-2.75
-3.30
-3.74
-4.05
-4.24
-4.40
-4.67
-5.13
-5.80
-6.63
-7.51
-8.26
-8.76
-8.86
-8.53
-7.77
-6.64
-5.26
-3.74
-2.18
-0.67
0.73
1.97
3.06
4.06
5.00
5.91
6.75
7.43
7.86
8.01
7.91
7.68
7.48
7.40
7.46
7.58
7.63
7.49
7.08
6.42
5.56
4.60
3.66
2.80
2.10
1.58
1.25
1.06
0.92
0.71
0.34
-0.19
-0.79
-1.32
-1.67
-1.78
-1.69
-1.49
-1.29
-1.17
-1.17
-1.30
-1.53
-1.83
-2.13
-2.34
-2.40
-2.32
-2.15
-1.99
-1.94
-2.06
-2.35
-2.75
-3.21
-3.67
-4.13
-4.66
-5.35
-6.21
-7.15
-7.93
-8.30
-8.07
-7.25
-6.01
-4.61
-3.28
-2.09
-1.02
-0.00
0.96
1.80
2.39
2.66
2.62
2.39
2.09
1.87
1.81
1.94
2.24
2.64
3.04
3.37
3.55
3.57
3.47
3.30
3.13
3.04
3.09
3.33
3.69
4.04
4.21
4.08
3.65
3.07
2.53
2.17
2.00
1.91
1.76
1.47
1.09
0.74
0.53
0.49
0.54
0.55
0.44
0.19
-0.15
-0.53
-0.90
-1.24
-1.54
-1.78
-1.99
-2.16
-2.36
-2.67
-3.17
-3.88
-4.73
-5.58
-6.26
-6.60
-6.51
-5.98
-5.10
-3.97
-2.72
-1.42
-0.13
1.09
2.20
3.11
3.76
4.14
4.27
4.22
4.04
3.81
3.58
3.40
3.31
3.30
3.34
3.32
3.15
2.84
2.47
2.23
2.23
2.48
2.85
3.10
3.09
2.78
2.30
1.83
1.48
1.27
1.08
0.82
0.46
0.05
-0.28
-0.43
-0.35
-0.05
0.35
0.75
0.99
0.95
0.59
-0.08
-0.95
-1.90
-2.80
-3.55
-4.15
-4.61
-4.97
-5.26
-5.53
-5.85
-6.30
-6.94
-7.79
-8.81
-9.88
-10.82
-11.42
-11.48
-10.90
-9.68
-7.96
-6.02
-4.18
-2.72
-1.74
-1.17
-0.78
-0.33
0.31
1.09
1.84
2.37
2.62
2.63
2.54
2.45
2.36
2.21
1.94
1.59
1.23
1.01
0.95
1.02
1.07
0.96
0.67
0.26
-0.15
-0.46
-0.64
-0.72
-0.76
-0.80
-0.82
-0.71
-0.42
0.08
0.72
1.36
1.86
2.15
2.22
2.14
1.98
1.82
1.63
1.39
1.06
0.63
0.15
-0.34
-0.78
-1.20
-1.64
-2.19
-2.92
-3.83
-4.83
-5.74
-6.36
-6.53
-6.20
-5.45
-4.41
-3.23
-2.01
-0.82
0.33
1.41
2.36
3.12
3.64
3.93
4.05
4.08
4.09
4.14
4.26
4.45
4.66
4.82
4.86
4.73
4.45
4.08
3.75
3.56
3.54
3.66
3.81
3.90
3.85
3.66
3.40
3.13
2.90
2.75
2.65
2.53
2.31
1.96
1.46
0.88
0.32
-0.15
-0.48
-0.68
-0.82
-0.97
-1.20
-1.58
-2.11
-2.76
-3.45
-4.09
-4.59
-4.94
-5.21
-5.52
-5.99
-6.69
-7.54
-8.33
-8.83
-8.86
-8.36
-7.42
-6.22
-4.90
-3.57
-2.21
-0.83
0.57
1.90
3.00
3.78
4.19
4.34
4.38
4.45
4.62
4.88
5.17
5.43
5.62
5.73
5.74
5.67
5.53
5.35
5.20
5.14
5.17
5.24
5.26
5.14
4.85
4.44
4.01
3.61
3.28
2.99
2.70
2.42
2.19
2.01
1.88
1.76
1.56
1.27
0.91
0.56
0.26
0.04
-0.17
-0.41
-0.74
-1.19
-1.71
-2.24
-2.72
-3.09
-3.37
-3.59
-3.86
-4.29
-4.92
-5.74
-6.64
-7.50
-8.23
-8.76
-9.00
-8.86
-8.22
-7.03
-5.34
-3.38
-1.44
0.16
1.25
1.83
2.06
2.16
2.31
2.61
3.03
3.48
3.86
4.12
4.26
4.34
4.41
4.56
4.81
5.18
5.63
6.11
6.54
6.81
6.85
6.64
6.21
5.66
5.06
4.49
3.96
3.46
2.95
2.41
1.83
1.27
0.76
0.38
0.15
0.06
0.06
0.08
0.04
-0.09
-0.32
-0.59
-0.87
-1.11
-1.32
-1.55
-1.85
-2.23
-2.70
-3.23
-3.80
-4.40
-5.06
-5.83
-6.66
-7.46
-8.04
-8.21
-7.86
-7.01
-5.78
-4.38
-2.99
-1.69
-0.51
0.57
1.56
2.48
3.30
3.98
4.47
4.70
4.66
4.41
4.06
3.77
3.66
3.73
3.90
4.04
4.08
4.03
3.92
3.83
3.75
3.63
3.40
3.04
2.58
2.11
1.71
1.45
1.32
1.30
1.33
1.37
1.40
1.38
1.33
1.23
1.07
0.86
0.57
0.25
-0.09
-0.39
-0.66
-0.91
-1.20
-1.57
-2.02
-2.53
-3.02
-3.47
-3.89
-4.27
-4.62
-4.93
-5.18
-5.40
-5.67
-6.13
-6.86
-7.81
-8.82
-9.57
-9.79
-9.29
-8.09
-6.38
-4.43
-2.52
-0.81
0.60
1.68
2.45
2.93
3.20
3.32
3.38
3.47
3.65
3.90
4.17
4.39
4.50
4.52
4.47
4.45
4.49
4.62
4.78
4.90
4.89
4.72
4.39
3.96
3.51
3.09
2.74
2.46
2.25
2.07
1.89
1.70
1.48
1.26
1.06
0.93
0.88
0.92
1.01
1.11
1.14
1.02
0.70
0.16
-0.54
-1.30
-2.01
-2.56
-2.91
-3.08
-3.15
-3.20
-3.34
-3.62
-4.07
-4.65
-5.28
-5.90
-6.46
-6.96
-7.42
-7.85
-8.20
-8.34
-8.15
-7.52
-6.45
-5.06
-3.52
-2.00
-0.64
0.54
1.55
2.42
3.15
3.69
4.01
4.10
4.05
3.97
3.96
4.03
4.13
4.19
4.17
4.10
4.03
4.03
4.07
4.12
4.10
4.01
3.89
3.76
3.67
3.58
3.48
3.33
3.13
2.90
2.62
2.29
1.89
1.45
1.01
0.63
0.37
0.25
0.25
0.33
0.38
0.31
0.03
-0.48
-1.17
-1.93
-2.63
-3.18
-3.58
-3.88
-4.18
-4.50
-4.87
-5.26
-5.67
-6.11
-6.64
-7.28
-8.01
-8.73
-9.32
-9.61
-9.50
-8.92
-7.92
-6.58
-5.06
-3.53
-2.06
-0.69
0.58
1.75
2.78
3.58
4.10
4.33
4.37
4.36
4.39
4.49
4.62
4.73
4.80
4.86
4.98
5.16
5.38
5.55
5.61
5.57
5.42
5.22
4.95
4.60
4.16
3.66
3.20
2.91
2.86
3.03
3.30
3.52
3.51
3.23
2.70
2.02
1.33
0.76
0.38
0.20
0.15
0.12
0.01
-0.26
-0.71
-1.31
-2.00
-2.68
-3.28
-3.69
-3.89
-3.89
-3.77
-3.67
-3.74
-4.09
-4.73
-5.60
-6.58
-7.50
-8.21
-8.60
-8.60
-8.21
-7.51
-6.57
-5.50
-4.38
-3.25
-2.12
-0.97
0.18
1.30
2.34
3.22
3.85
4.18
4.17
3.88
3.43
2.98
2.68
2.64
2.91
3.41
4.02
4.56
4.92
5.03
4.89
4.54
4.06
3.52
3.04
2.70
2.56
2.60
2.73
2.81
2.75
2.51
2.15
1.76
1.42
1.13
0.87
0.60
0.32
0.07
-0.15
-0.33
-0.54
-0.80
-1.16
-1.58
-2.03
-2.47
-2.86
-3.16
-3.36
-3.47
-3.57
-3.75
-4.11
-4.66
-5.35
-6.05
-6.65
-7.03
-7.17
-7.05
-6.68
-6.05
-5.15
-4.03
-2.75
-1.45
-0.25
0.76
1.55
2.17
2.64
3.03
3.30
3.42
3.39
3.22
2.95
2.68
2.46
2.30
2.20
2.21
2.38
2.76
3.34
4.00
4.55
4.80
4.70
4.33
3.88
3.53
3.40
3.43
3.49
3.42
3.14
2.66
2.05
1.45
0.97
0.68
0.60
0.68
0.83
0.94
0.92
0.70
0.31
-0.17
-0.65
-1.09
-1.49
-1.90
-2.34
-2.79
-3.19
-3.50
-3.71
-3.88
-4.09
-4.38
-4.71
-5.02
-5.28
-5.52
-5.82
-6.30
-6.99
-7.79
-8.51
-8.91
-8.80
-8.11
-6.86
-5.20
-3.34
-1.48
0.18
1.54
2.54
3.16
3.43
3.42
3.27
3.12
3.10
3.28
3.62
4.00
4.31
4.44
4.40
4.29
4.20
4.25
4.43
4.67
4.86
4.93
4.87
4.73
4.61
4.54
4.47
4.30
3.94
3.36
2.64
1.95
1.45
1.22
1.20
1.28
1.33
1.27
1.12
0.90
0.65
0.34
-0.05
-0.54
-1.13
-1.74
-2.31
-2.76
-3.06
-3.20
-3.20
-3.12
-3.05
-3.09
-3.32
-3.77
-4.39
-5.11
-5.85
-6.55
-7.18
-7.70
-8.05
-8.14
-7.85
-7.12
-5.98
-4.55
-3.01
-1.56
-0.29
0.79
1.69
2.43
3.03
3.45
3.68
3.72
3.65
3.56
3.58
3.77
4.12
4.57
4.97
5.17
5.04
4.61
4.03
3.55
3.37
3.60
4.19
4.95
5.57
5.80
5.54
4.94
4.25
3.72
3.56
3.91
4.68
5.56
6.14
6.16
5.70
5.07
4.63
4.70
5.52
6.91
8.40
9.42
9.64
9.33
8.98
9.17
10.45
13.34
17.95
23.91
30.30
35.91
39.64
40.38
37.26
29.48
18.03
5.82
-3.60
-8.05
-8.76
-7.09
-4.08
-0.38
3.56
8.05
12.60
16.31
18.18
17.74
15.49
12.37
9.33
6.89
5.07
3.18
0.26
-4.42
-10.93
-18.42
-25.73
-31.71
-35.51
-36.54
-34.89
-31.24
-26.87
-23.35
-21.94
-23.27
-26.77
-30.70
-32.59
-30.60
-24.41
-15.66
-7.20
-1.63
-0.08
-1.77
-4.68
-6.84
-7.43
-7.00
-6.66
-7.07
-7.74
-7.38
-4.74
0.52
7.53
14.62
20.17
23.24
23.82
22.60
20.48
18.17
16.03
14.12
12.52
11.40
10.97
11.06
10.84
8.82
3.50
-5.73
-17.90
-30.55
-40.70
-46.24
-46.85
-43.99
-39.82
-35.94
-32.61
-28.95
-23.88
-17.13
-9.58
-2.76
2.04
4.52
5.48
6.21
7.81
10.62
14.19
17.71
20.35
21.50
20.72
17.70
12.22
4.42
-5.14
-15.38
-25.02
-32.98
-38.68
-42.03
-43.22
-42.38
-39.51
-34.63
-28.05
-20.41
-12.59
-5.23
1.52
7.98
14.61
21.61
28.61
34.83
39.41
41.87
42.36
41.60
40.56
40.09
40.67
42.17
43.93
44.76
43.24
38.12
28.75
15.58
0.17
-15.08
-27.71
-35.97
-39.43
-38.95
-36.19
-32.83
-29.88
-27.49
-25.16
-22.29
-18.51
-13.85
-8.62
-3.12
2.43
7.89
13.09
17.66
21.03
22.55
21.67
18.18
12.28
4.70
-3.45
-10.94
-16.83
-20.74
-23.02
-24.50
-26.03
-28.03
-30.21
-31.78
-31.85
-30.00
-26.41
-21.83
-17.09
-12.80
-9.11
-5.89
-2.96
-0.27
2.03
3.70
4.59
4.66
3.91
2.26
-0.46
-4.39
-9.53
-15.53
-21.71
-27.21
-31.24
-33.35
-33.56
-32.30
-30.20
-27.83
-25.53
-23.37
-21.28
-19.21
-17.28
-15.75
-14.95
-15.20
-16.71
-19.60
-23.80
-28.98
-34.43
-39.08
-41.68
-41.14
-36.89
-29.08
-18.59
-6.72
5.10
15.72
24.30
30.33
33.59
34.05
31.94
27.89
22.93
18.34
15.28
14.35
15.35
17.43
19.56
21.14
22.30
23.84
26.64
31.12
36.90
42.95
48.05
51.35
52.55
51.85
49.62
46.07
41.25
35.09
27.68
19.38
10.82
2.74
-4.21
-9.57
-13.20
-15.23
-15.94
-15.71
-14.86
-13.61
-12.09
-10.43
-8.78
-7.38
-6.47
-6.17
-6.41
-6.85
-7.03
-6.53
-5.17
-3.06
-0.56
1.89
3.97
5.51
6.55
7.19
7.51
7.54
7.22
6.56
5.60
4.49
3.44
2.61
2.06
1.76
1.58
1.42
1.26
1.20
1.36
1.80
2.48
3.29
4.05
4.67
5.13
5.49
5.82
6.17
6.50
6.75
6.85
6.76
6.49
6.09
5.66
5.29
5.01
4.80
4.59
4.32
3.93
3.42
2.81
2.12
1.41
0.72
0.10
-0.41
-0.81
-1.18
-1.61
-2.16
-2.78
-3.34
-3.57
-3.27
-2.29
-0.64
1.52
3.94
6.33
8.45
10.20
11.57
12.72
13.76
14.77
15.68
16.39
16.80
16.91
16.86
16.83
16.96
17.30
17.82
18.44
19.08
19.62
19.88
19.63
18.65
16.87
14.44
11.74
9.25
7.43
6.53
6.53
7.15
8.00
8.67
8.90
8.58
7.71
6.40
4.76
2.91
0.98
-0.88
-2.52
-3.83
-4.88
-5.83
-6.91
-8.30
-10.05
-12.03
-13.99
-15.65
-16.84
-17.51
-17.77
-17.81
-17.86
-18.08
-18.53
-19.13
-19.69
-19.96
-19.72
-18.84
-17.28
-15.12
-12.47
-9.51
-6.47
-3.58
-1.06
0.95
2.41
3.36
3.93
4.22
4.29
4.18
3.87
3.40
2.84
2.34
2.05
2.08
2.47
3.15
4.01
4.92
5.78
6.56
7.23
7.77
8.19
8.47
8.63
8.65
8.55
8.28
7.80
7.07
6.10
4.96
3.76
2.61
1.54
0.51
-0.56
-1.77
-3.14
-4.61
-6.06
-7.35
-8.38
-9.05
-9.35
-9.34
-9.13
-8.88
-8.79
-8.99
-9.53
-10.32
-11.12
-11.62
-11.50
-10.59
-8.93
-6.69
-4.16
-1.64
0.66
2.64
4.24
5.40
6.12
6.42
6.38
6.15
5.89
5.69
5.57
5.46
5.32
5.15
5.00
4.99
5.19
5.60
6.14
6.70
7.18
7.55
7.84
8.07
8.25
8.33
8.25
7.94
7.45
6.87
6.32
5.85
5.44
4.97
4.31
3.43
2.40
1.34
0.34
-0.57
-1.45
-2.34
-3.25
-4.12
-4.87
-5.51
-6.09
-6.72
-7.51
-8.52
-9.75
-11.10
-12.43
-13.53
-14.16
-14.12
-13.29
-11.68
-9.52
-7.09
-4.76
-2.75
-1.19
0.01
0.98
1.88
2.78
3.68
4.52
5.21
5.70
6.00
6.19
6.33
6.50
6.70
6.95
7.20
7.43
7.58
7.64
7.60
7.48
7.30
7.06
6.71
6.23
5.61
4.94
4.33
3.89
3.65
3.56
3.53
3.43
3.20
2.82
2.32
1.74
1.12
0.52
-0.02
-0.46
-0.78
-1.03
-1.29
-1.63
-2.09
-2.67
-3.28
-3.86
-4.35
-4.78
-5.20
-5.74
-6.51
-7.59
-8.98
-10.55
-12.06
-13.23
-13.76
-13.49
-12.43
-10.73
-8.65
-6.49
-4.48
-2.79
-1.44
-0.42
0.36
0.97
1.50
1.97
2.39
2.74
3.04
3.28
3.51
3.76
4.05
4.35
4.63
4.82
4.91
4.90
4.80
4.66
4.52
4.42
4.40
4.44
4.50
4.49
4.33
3.96
3.41
2.74
2.04
1.39
0.79
0.21
-0.39
-1.06
-1.81
-2.59
-3.34
-3.97
-4.44
-4.73
-4.89
-5.03
-5.28
-5.70
-6.32
-7.10
-7.95
-8.79
-9.53
-10.03
-10.16
-9.81
-8.89
-7.44
-5.58
-3.52
-1.48
0.38
1.95
3.22
4.20
4.92
5.41
5.68
5.76
5.68
5.49
5.27
5.12
5.11
5.23
5.42
5.54
5.52
5.36
5.14
5.01
5.03
5.18
5.35
5.41
5.26
4.93
4.51
4.11
3.76
3.42
3.02
2.51
1.94
1.42
1.02
0.79
0.66
0.53
0.31
-0.07
-0.61
-1.29
-2.08
-2.92
-3.72
-4.39
-4.87
-5.16
-5.36
-5.59
-5.96
-6.52
-7.23
-8.03
-8.87
-9.65
-10.27
-10.58
-10.41
-9.64
-8.28
-6.49
-4.54
-2.68
-1.07
0.28
1.41
2.37
3.19
3.81
4.18
4.31
4.25
4.13
4.09
4.19
4.41
4.68
4.89
5.01
5.05
5.07
5.12
5.22
5.36
5.47
5.51
5.45
5.29
5.03
4.65
4.16
3.58
2.93
2.27
1.65
1.09
0.61
0.21
-0.14
-0.45
-0.78
-1.16
-1.61
-2.13
-2.69
-3.25
-3.76
-4.21
-4.63
-5.03
-5.39
-5.73
-6.02
-6.28
-6.58
-6.99
-7.57
-8.36
-9.30
-10.25
-11.00
-11.30
-10.93
-9.79
-7.94
-5.59
-3.06
-0.68
1.29
2.68
3.51
3.87
3.94
3.88
3.85
3.92
4.08
4.28
4.43
4.47
4.38
4.23
4.12
4.17
4.39
4.73
5.05
5.23
5.21
4.99
4.68
4.37
4.09
3.85
3.59
3.28
2.91
2.50
2.08
1.66
1.24
0.86
0.54
0.28
0.07
-0.16
-0.51
-1.02
-1.66
-2.32
-2.91
-3.38
-3.76
-4.16
-4.66
-5.26
-5.85
-6.34
-6.73
-7.15
-7.78
-8.73
-9.89
-10.96
-11.49
-11.17
-9.91
-7.93
-5.63
-3.38
-1.43
0.16
1.49
2.63
3.59
4.30
4.71
4.84
4.81
4.79
4.89
5.15
5.48
5.76
5.89
5.87
5.76
5.68
5.74
5.97
6.31
6.65
6.84
6.80
6.51
6.02
5.41
4.80
4.25
3.78
3.38
3.01
2.65
2.28
1.92
1.58
1.27
0.94
0.57
0.13
-0.38
-0.84
-1.19
-1.40
-1.56
-1.85
-2.39
-3.22
-4.19
-5.04
-5.59
-5.80
-5.83
-5.95
-6.41
-7.30
-8.52
-9.81
-10.89
-11.48
-11.46
-10.77
-9.50
-7.78
-5.80
-3.72
-1.70
0.14
1.69
2.88
3.67
4.05
4.07
3.85
3.54
3.25
3.08
3.07
3.20
3.45
3.77
4.13
4.49
4.78
4.97
5.05
5.02
4.90
4.71
4.45
4.12
3.72
3.28
2.88
2.56
2.31
2.06
1.71
1.19
0.55
-0.10
-0.62
-0.97
-1.17
-1.34
-1.59
-2.02
-2.59
-3.23
-3.87
-4.41
-4.82
-5.12
-5.33
-5.52
-5.77
-6.14
-6.67
-7.32
-8.01
-8.61
-8.95
-8.86
-8.22
-7.00
-5.29
-3.29
-1.28
0.50
1.91
2.92
3.59
3.99
4.19
4.22
4.12
4.00
3.98
4.15
4.48
4.85
5.07
5.02
4.71
4.31
4.08
4.14
4.51
5.01
5.41
5.50
5.22
4.61
3.83
3.05
2.41
2.02
1.86
1.85
1.88
1.84
1.67
1.39
1.07
0.72
0.36
-0.06
-0.58
-1.14
-1.67
-2.08
-2.34
-2.49
-2.67
-2.98
-3.46
-4.10
-4.80
-5.48
-6.11
-6.70
-7.29
-7.96
-8.72
-9.50
-10.18
-10.54
-10.42
-9.69
-8.38
-6.61
-4.62
-2.61
-0.80
0.69
1.82
2.63
3.23
3.71
4.16
4.60
4.99
5.26
5.37
5.35
5.25
5.16
5.14
5.22
5.34
5.46
5.52
5.52
5.48
5.41
5.32
5.17
4.94
4.61
4.20
3.79
3.46
3.27
3.18
3.13
3.01
2.76
2.36
1.88
1.38
0.93
0.51
0.11
-0.32
-0.78
-1.27
-1.76
-2.27
-2.83
-3.49
-4.26
-5.09
-5.91
-6.59
-7.11
-7.50
-7.88
-8.37
-9.01
-9.71
-10.27
-10.49
-10.22
-9.40
-8.11
-6.50
-4.72
-2.92
-1.23
0.26
1.46
2.33
2.86
3.11
3.17
3.13
3.08
3.05
3.05
3.09
3.19
3.38
3.66
4.01
4.39
4.76
5.06
5.24
5.28
5.18
4.94
4.63
4.31
3.98
3.67
3.32
2.90
2.40
1.84
1.31
0.84
0.45
0.06
-0.38
-0.92
-1.54
-2.18
-2.77
-3.29
-3.72
-4.07
-4.36
-4.60
-4.81
-5.03
-5.29
-5.62
-6.03
-6.47
-6.84
-7.07
-7.04
-6.63
-5.75
-4.30
-2.29
0.21
3.10
6.30
9.85
13.87
18.52
23.83
29.60
35.40
40.69
44.99
48.03
49.79
50.45
50.25
49.41
48.08
46.35
44.31
41.99
39.42
36.56
33.32
29.63
25.53
21.23
17.08
13.43
10.51
8.31
6.62
5.15
3.75
2.49
1.74
1.89
3.18
5.40
7.80
9.24
8.53
4.84
-1.99
-11.34
-21.97
-32.31
-40.86
-46.61
-49.19
-49.05
-47.19
-44.93
-43.52
-43.79
-46.00
-49.80
-54.46
-59.03
-62.61
-64.56
-64.68
-63.25
-60.84
-58.10
-55.46
-52.98
-50.56
-48.13
-45.89
-44.31
-43.84
-44.62
-46.30
-48.23
-49.81
-50.77
-51.25
-51.47
-51.49
-50.95
-49.32
-46.33
-42.30
-38.24
-35.53
-35.19
-37.25
-40.55
-43.13
-43.02
-39.01
-31.00
-19.79
-6.53
7.77
22.42
36.79
50.05
60.96
68.20
70.86
68.86
63.10
55.17
46.81
39.44
33.81
30.06
27.82
26.55
25.78
25.27
24.91
24.58
24.09
23.16
21.68
19.89
18.47
18.26
19.92
23.56
28.62
34.09
38.83
41.95
42.98
41.85
38.79
34.21
28.72
23.03
17.97
14.24
12.19
11.76
12.46
13.56
14.31
14.21
13.10
11.26
9.28
7.88
7.57
8.52
10.40
12.56
14.26
14.97
14.48
12.89
10.41
7.20
3.32
-1.20
-6.21
-11.30
-15.85
-19.25
-21.14
-21.66
-21.45
-21.37
-22.09
-23.68
-25.51
-26.42
-25.27
-21.38
-14.95
-7.02
0.93
7.49
11.81
13.75
13.73
12.41
10.35
7.84
4.98
1.88
-1.17
-3.66
-5.11
-5.43
-5.17
-5.34
-6.85
-9.86
-13.41
-15.72
-14.97
-10.19
-1.85
8.32
18.06
25.54
30.01
31.82
31.89
31.00
29.37
26.69
22.50
16.75
9.97
3.17
-2.57
-6.50
-8.38
-8.44
-7.29
-5.72
-4.66
-4.97
-7.21
-11.26
-16.17
-20.35
-22.10
-20.35
-15.13
-7.54
0.75
8.26
14.16
18.36
21.06
22.42
22.26
20.30
16.47
11.21
5.47
0.34
-3.33
-5.29
-5.94
-6.04
-6.40
-7.55
-9.58
-12.13
-14.52
-15.92
-15.62
-13.18
-8.69
-2.77
3.61
9.35
13.67
16.23
17.18
16.86
15.59
13.49
10.54
6.75
2.30
-2.33
-6.52
-9.58
-11.09
-11.06
-9.99
-8.81
-8.54
-9.96
-13.19
-17.56
-21.77
-24.30
-24.00
-20.53
-14.41
-6.79
1.02
8.03
13.68
17.80
20.34
21.18
20.17
17.29
12.96
8.11
3.95
1.54
1.22
2.34
3.51
3.31
1.04
-2.81
-6.70
-8.71
-7.43
-2.57
4.92
13.31
20.86
26.43
29.75
31.19
31.32
30.47
28.55
25.26
20.43
14.31
7.64
1.36
-3.72
-7.24
-9.31
-10.43
-11.20
-12.16
-13.76
-16.22
-19.46
-22.93
-25.72
-26.78
-25.38
-21.44
-15.56
-8.80
-2.18
3.68
8.61
12.69
15.94
18.16
19.05
18.41
16.42
13.66
11.00
9.30
9.19
10.85
13.80
16.96
18.75
17.54
12.28
3.00
-8.92
-21.01
-30.51
-35.24
-34.39
-28.65
-19.86
-10.22
-1.57
5.02
9.19
11.02
10.66
8.29
4.19
-1.12
-6.77
-11.63
-14.61
-15.09
-13.22
-10.12
-7.65
-7.78
-11.77
-19.46
-29.10
-37.92
-43.09
-42.87
-37.19
-27.54
-16.17
-5.24
3.88
10.64
14.98
16.92
16.41
13.44
8.33
1.85
-4.87
-10.59
-14.22
-15.03
-12.80
-7.96
-1.62
4.61
9.11
10.89
9.96
7.39
4.77
3.53
4.41
7.34
11.75
16.90
22.19
27.01
30.67
32.33
31.34
27.56
21.70
15.17
9.69
6.75
7.18
10.82
16.44
21.91
24.71
22.81
15.46
3.74
-9.67
-21.39
-28.67
-30.29
-26.91
-20.44
-13.04
-6.27
-0.83
3.20
5.87
7.00
6.34
3.83
-0.06
-4.32
-7.71
-9.16
-8.17
-5.03
-0.85
2.65
3.70
1.11
-5.11
-13.57
-21.86
-27.50
-28.90
-26.00
-20.08
-13.10
-6.69
-1.65
2.04
4.70
6.49
7.15
6.28
3.77
0.15
-3.51
-5.85
-5.81
-3.12
1.47
6.28
9.28
8.88
4.62
-2.55
-10.59
-17.16
-20.42
-19.68
-15.34
-8.52
-0.59
7.29
14.23
19.57
22.86
23.93
22.97
20.69
18.14
16.51
16.77
19.31
23.71
28.68
32.25
32.31
27.36
17.18
3.05
-12.50
-26.56
-36.82
-42.33
-43.66
-42.33
-39.94
-37.37
-34.40
-30.12
-23.64
-14.88
-4.90
4.48
11.44
15.00
15.41
13.91
12.22
11.78
13.35
16.84
21.41
25.75
28.35
27.86
23.40
14.88
3.10
-10.49
-23.99
-35.53
-43.45
-46.50
-43.95
-35.88
-23.34
-8.42
6.19
17.89
25.04
27.54
26.75
24.93
24.20
25.78
29.53
34.16
37.74
38.40
34.88
26.85
14.98
0.75
-13.92
-27.09
-37.27
-43.55
-45.70
-43.98
-38.95
-31.42
-22.40
-13.15
-5.01
0.93
4.14
4.90
4.18
3.32
3.46
5.18
8.27
11.86
14.79
15.96
14.65
10.71
4.50
-3.17
-11.27
-18.73
-24.66
-28.53
-30.26
-30.19
-28.90
-27.00
-24.93
-22.89
-20.89
-18.89
-16.92
-15.07
-13.42
-12.00
-10.78
-9.72
-8.79
-8.02
-7.38
-6.75
-5.90
-4.62
-2.78
-0.50
1.98
4.34
6.37
8.01
9.30
10.30
11.06
11.64
12.24
13.11
14.54
16.67
19.39
22.33
25.00
27.04
28.29
28.77
28.60
27.85
26.48
24.46
21.85
18.85
15.75
12.82
10.22
7.96
5.95
4.09
2.28
0.48
-1.35
-3.20
-5.06
-6.89
-8.64
-10.22
-11.59
-12.73
-13.66
-14.45
-15.16
-15.81
-16.34
-16.63
-16.56
-16.05
-15.10
-13.83
-12.40
-10.89
-9.31
-7.53
-5.39
-2.84
0.06
3.08
5.92
8.33
10.23
11.65
12.70
13.42
13.79
13.68
13.02
11.85
10.34
8.79
7.41
6.34
5.61
5.14
4.85
4.72
4.72
4.90
5.30
5.96
6.93
8.22
9.78
11.51
13.27
14.92
16.32
17.39
18.07
18.25
17.85
16.73
14.78
11.97
8.35
4.13
-0.35
-4.67
-8.42
-11.34
-13.31
-14.49
-15.11
-15.47
-15.76
-16.02
-16.23
-16.33
-16.33
-16.28
-16.23
-16.16
-15.92
-15.33
-14.23
-12.62
-10.68
-8.64
-6.78
-5.29
-4.30
-3.91
-4.19
-5.20
-6.88
-8.99
-11.19
-13.12
-14.58
-15.52
-16.06
-16.33
-16.36
-16.08
-15.49
-14.66
-13.87
-13.40
-13.32
-13.39
-13.08
-11.88
-9.58
-6.43
-3.05
-0.12
1.96
3.17
3.86
4.44
5.13
5.93
6.65
7.13
7.41
7.68
8.24
9.30
10.84
12.62
14.28
15.50
16.08
16.04
15.54
14.75
13.79
12.69
11.43
10.02
8.54
7.11
5.81
4.63
3.48
2.19
0.64
-1.17
-3.08
-4.81
-5.99
-6.37
-5.81
-4.41
-2.45
-0.33
1.63
3.25
4.56
5.75
7.03
8.53
10.29
12.25
14.35
16.59
18.98
21.56
24.33
27.25
30.30
33.47
36.78
40.19
43.50
46.34
48.20
48.57
47.14
44.00
39.59
34.65
29.96
26.05
23.07
20.81
18.95
17.22
15.56
14.07
12.79
11.55
9.96
7.50
3.84
-1.04
-6.84
-13.05
-19.17
-24.73
-29.32
-32.48
-33.75
-32.93
-30.22
-26.45
-22.80
-20.42
-19.92
-21.14
-23.23
-25.16
-26.16
-26.02
-25.01
-23.59
-22.05
-20.42
-18.49
-16.08
-13.24
-10.25
-7.49
-5.24
-3.55
-2.18
-0.83
0.73
2.49
4.21
5.44
5.81
5.09
3.33
0.82
-2.04
-4.85
-7.38
-9.52
-11.33
-12.87
-14.19
-15.26
-15.99
-16.26
-16.01
-15.22
-14.00
-12.50
-10.90
-9.37
-8.01
-6.91
-6.04
-5.39
-4.91
-4.55
-4.27
-4.08
-4.00
-4.08
-4.35
-4.81
-5.43
-6.15
-6.90
-7.60
-8.21
-8.70
-9.08
-9.43
-9.79
-10.23
-10.75
-11.32
-11.87
-12.33
-12.67
-12.83
-12.72
-12.24
-11.28
-9.83
-7.98
-5.94
-3.94
-2.13
-0.55
0.84
2.08
3.19
4.11
4.82
5.33
5.73
6.11
6.52
6.96
7.35
7.61
7.75
7.84
7.94
8.08
8.23
8.29
8.19
7.87
7.37
6.75
6.10
5.45
4.83
4.21
3.61
3.03
2.51
2.04
1.61
1.16
0.66
0.11
-0.42
-0.86
-1.16
-1.34
-1.44
-1.53
-1.68
-1.91
-2.21
-2.58
-3.04
-3.61
-4.32
-5.19
-6.12
-6.97
-7.54
-7.65
-7.22
-6.29
-5.05
-3.70
-2.46
-1.39
-0.48
0.37
1.22
2.08
2.89
3.58
4.10
4.46
4.66
4.75
4.79
4.87
5.07
5.47
6.06
6.76
7.38
7.74
7.72
7.37
6.81
6.24
5.77
5.39
5.00
4.49
3.84
3.15
2.64
2.45
2.63
3.06
3.48
3.65
3.43
2.82
1.98
1.13
0.41
-0.11
-0.49
-0.82
-1.21
-1.71
-2.26
-2.77
-3.11
-3.21
-3.11
-2.93
-2.84
-2.99
-3.47
-4.30
-5.40
-6.64
-7.84
-8.77
-9.22
-9.07
-8.29
-6.96
-5.25
-3.38
-1.54
0.06
1.29
2.08
2.49
2.64
2.74
2.95
3.35
3.91
4.53
5.13
5.64
6.05
6.37
6.62
6.80
6.93
7.02
7.05
7.04
7.00
6.98
7.00
7.06
7.09
6.96
6.59
5.98
5.26
4.63
4.24
4.11
4.11
4.03
3.72
3.14
2.40
1.68
1.11
0.69
0.37
0.06
-0.30
-0.70
-1.10
-1.50
-1.88
-2.28
-2.72
-3.18
-3.64
-4.09
-4.50
-4.91
-5.32
-5.73
-6.10
-6.46
-6.87
-7.44
-8.24
-9.24
-10.24
-10.93
-11.05
-10.47
-9.27
-7.68
-5.96
-4.35
-2.95
-1.80
-0.88
-0.17
0.34
0.69
0.94
1.15
1.33
1.49
1.56
1.54
1.40
1.19
0.94
0.72
0.53
0.39
0.29
0.22
0.15
0.04
-0.12
-0.29
-0.30
0.09
1.20
3.29
6.40
10.30
14.50
18.40
21.51
23.61
24.80
25.40
25.81
26.41
27.45
29.11
31.48
34.48
37.91
41.38
44.44
46.68
47.81
47.69
46.23
43.42
39.29
34.03
28.16
22.47
17.87
15.07
14.23
14.86
15.81
15.67
13.06
7.12
-2.29
-14.49
-28.17
-41.68
-53.46
-62.40
-68.10
-70.81
-71.33
-70.67
-69.74
-69.05
-68.55
-67.56
-64.92
-59.35
-49.91
-36.53
-20.16
-2.67
13.79
27.54
37.91
45.41
51.25
56.66
62.22
67.59
71.73
73.46
72.01
67.24
59.66
50.10
39.36
28.10
16.77
5.62
-5.21
-15.74
-26.13
-36.60
-47.29
-57.95
-67.86
-75.98
-81.18
-82.73
-80.56
-75.27
-67.90
-59.61
-51.33
-43.64
-36.84
-30.96
-25.92
-21.42
-17.00
-12.02
-5.99
1.24
9.21
17.02
23.59
28.09
30.22
30.27
28.90
26.86
24.74
22.87
21.32
20.06
18.97
17.93
16.82
15.58
14.22
12.85
11.55
10.17
8.31
5.25
0.29
-6.91
-16.03
-26.05
-35.58
-43.27
-48.27
-50.43
-50.18
-48.19
-45.10
-41.31
-37.01
-32.32
-27.40
-22.45
-17.61
-12.89
-8.18
-3.33
1.76
7.03
12.31
17.39
22.14
26.53
30.60
34.39
37.83
40.75
42.93
44.16
44.39
43.61
41.93
39.46
36.32
32.62
28.50
24.07
19.45
14.72
9.90
4.96
-0.19
-5.70
-11.71
-18.29
-25.36
-32.61
-39.56
-45.62
-50.24
-53.00
-53.72
-52.53
-49.78
-46.03
-41.88
-37.83
-34.13
-30.79
-27.63
-24.47
-21.19
-17.83
-14.46
-11.06
-7.46
-3.39
1.46
7.18
13.67
20.63
27.56
33.96
39.34
43.33
45.78
46.76
46.59
45.72
44.59
43.51
42.56
41.68
40.74
39.69
38.62
37.70
37.14
37.05
37.31
37.57
37.30
35.89
32.87
27.99
21.28
13.00
3.64
-6.11
-15.33
-23.17
-29.11
-33.28
-36.41
-39.46
-42.97
-46.64
-49.35
-49.86
-47.54
-42.82
-36.97
-31.27
-26.40
-22.12
-17.73
-12.77
-7.48
-2.73
0.50
1.71
1.12
-0.54
-2.48
-4.28
-5.99
-7.90
-10.28
-13.12
-16.13
-18.90
-21.04
-22.31
-22.63
-22.06
-20.77
-18.94
-16.74
-14.30
-11.64
-8.75
-5.58
-2.16
1.32
4.53
7.11
8.84
9.72
9.97
9.87
9.65
9.37
8.98
8.47
7.92
7.48
7.27
7.27
7.28
7.02
6.30
5.13
3.71
2.34
1.30
0.67
0.39
0.32
0.29
0.21
0.04
-0.23
-0.60
-1.09
-1.72
-2.49
-3.40
-4.37
-5.32
-6.09
-6.55
-6.60
-6.17
-5.25
-3.88
-2.18
-0.29
1.66
3.54
5.27
6.81
8.17
9.30
10.13
10.58
10.64
10.36
9.93
9.55
9.39
9.50
9.81
10.20
10.55
10.74
10.73
10.47
9.97
9.26
8.44
7.60
6.85
6.26
5.81
5.46
5.13
4.80
4.50
4.26
4.10
4.01
3.90
3.67
3.24
2.59
1.78
0.94
0.18
-0.44
-0.97
-1.53
-2.26
-3.26
-4.54
-5.99
-7.41
-8.61
-9.36
-9.51
-9.00
-7.86
-6.21
-4.23
-2.11
-0.05
1.82
3.46
4.84
5.98
6.86
7.47
7.81
7.88
7.75
7.53
7.35
7.28
7.33
7.45
7.59
7.67
7.71
7.73
7.78
7.85
7.89
7.87
7.75
7.53
7.22
6.84
6.39
5.88
5.33
4.77
4.28
3.89
3.61
3.39
3.16
2.84
2.41
1.92
1.42
1.01
0.71
0.47
0.20
-0.20
-0.81
-1.60
-2.50
-3.37
-4.13
-4.75
-5.25
-5.71
-6.22
-6.85
-7.59
-8.47
-9.43
-10.38
-11.20
-11.69
-11.67
-11.00
-9.69
-7.85
-5.72
-3.59
-1.68
-0.13
1.06
2.00
2.81
3.59
4.39
5.15
5.74
6.06
6.07
5.83
5.49
5.21
5.09
5.13
5.27
5.42
5.56
5.69
5.86
6.05
6.19
6.17
5.90
5.39
4.72
4.03
3.46
3.06
2.81
2.64
2.49
2.30
2.07
1.77
1.40
0.94
0.41
-0.15
-0.67
-1.06
-1.28
-1.31
-1.23
-1.14
-1.14
-1.34
-1.77
-2.40
-3.18
-4.02
-4.85
-5.59
-6.20
-6.66
-7.03
-7.38
-7.82
-8.42
-9.19
-10.01
-10.68
-10.96
-10.63
-9.61
-7.95
-5.84
-3.55
-1.38
0.42
1.73
2.55
2.94
3.03
2.98
2.90
2.86
2.90
2.99
3.16
3.39
3.69
4.06
4.46
4.85
5.20
5.49
5.74
6.00
6.24
6.43
6.48
6.33
5.96
5.42
4.80
4.22
3.72
3.33
3.03
2.79
2.57
2.34
2.09
1.79
1.42
0.95
0.39
-0.25
-0.88
-1.39
-1.74
-1.94
-2.09
-2.36
-2.86
-3.60
-4.50
-5.37
-6.03
-6.41
-6.53
-6.52
-6.55
-6.78
-7.28
-8.04
-8.98
-9.95
-10.79
-11.31
-11.36
-10.82
-9.64
-7.90
-5.78
-3.57
-1.55
0.09
1.33
2.27
3.04
3.73
4.33
4.77
4.99
5.05
5.04
5.11
5.35
5.73
6.16
6.53
6.79
6.92
6.95
6.93
6.89
6.79
6.62
6.34
5.91
5.36
4.76
4.22
3.84
3.66
3.63
3.64
3.56
3.31
2.92
2.49
2.14
1.90
1.77
1.66
1.48
1.22
0.90
0.57
0.30
0.11
-0.01
-0.11
-0.27
-0.52
-0.91
-1.43
-2.05
-2.70
-3.34
-3.93
-4.47
-4.99
-5.51
-6.03
-6.60
-7.25
-7.99
-8.81
-9.66
-10.46
-11.07
-11.35
-11.18
-10.45
-9.15
-7.35
-5.18
-2.88
-0.66
1.27
2.77
3.78
4.30
4.41
4.20
3.86
3.55
3.43
3.53
3.82
4.16
4.45
4.67
4.83
5.03
5.29
5.58
5.81
5.86
5.69
5.32
4.86
4.42
4.08
3.85
3.68
3.50
3.27
2.98
2.65
2.29
1.94
1.62
1.33
1.07
0.83
0.57
0.25
-0.15
-0.64
-1.17
-1.67
-2.12
-2.54
-2.97
-3.43
-3.92
-4.40
-4.84
-5.23
-5.64
-6.12
-6.72
-7.44
-8.23
-9.04
-9.81
-10.47
-10.88
-10.87
-10.27
-9.03
-7.24
-5.14
-2.98
-0.98
0.75
2.19
3.37
4.27
4.86
5.17
5.25
5.22
5.22
5.29
5.42
5.53
5.55
5.49
5.38
5.30
5.29
5.39
5.55
5.72
5.85
5.89
5.78
5.51
5.10
4.61
4.10
3.68
3.42
3.32
3.34
3.39
3.36
3.15
2.74
2.21
1.69
1.27
1.00
0.87
0.77
0.64
0.46
0.25
0.07
-0.07
-0.24
-0.53
-1.05
-1.80
-2.69
-3.55
-4.23
-4.71
-5.07
-5.44
-5.94
-6.56
-7.23
-7.84
-8.33
-8.73
-9.09
-9.41
-9.62
-9.54
-9.04
-8.06
-6.65
-4.98
-3.24
-1.54
0.04
1.52
2.83
3.88
4.52
4.69
4.43
3.96
3.58
3.50
3.76
4.20
4.61
4.80
4.76
4.60
4.51
4.56
4.73
4.87
4.86
4.64
4.29
3.90
3.57
3.30
3.07
2.85
2.64
2.43
2.22
1.98
1.66
1.25
0.80
0.40
0.15
0.09
0.18
0.29
0.30
0.11
-0.30
-0.90
-1.61
-2.36
-3.10
-3.77
-4.32
-4.69
-4.89
-4.96
-5.04
-5.27
-5.77
-6.57
-7.58
-8.59
-9.38
-9.73
-9.51
-8.68
-7.30
-5.50
-3.51
-1.58
0.05
1.24
1.98
2.38
2.61
2.83
3.12
3.45
3.78
4.05
4.25
4.39
4.46
4.44
4.32
4.11
3.87
3.67
3.61
3.70
3.95
4.29
4.64
4.93
5.12
5.17
5.07
4.84
4.49
4.07
3.65
3.27
2.92
2.60
2.25
1.88
1.52
1.21
0.97
0.81
0.64
0.39
0.06
-0.32
-0.64
-0.86
-1.00
-1.22
-1.67
-2.41
-3.34
-4.24
-4.90
-5.29
-5.58
-6.05
-6.94
-8.24
-9.68
-10.79
-11.15
-10.54
-9.07
-7.09
-4.99
-3.06
-1.44
-0.09
1.04
1.99
2.73
3.26
3.58
3.79
3.98
4.20
4.43
4.55
4.49
4.22
3.83
3.50
3.36
3.47
3.76
4.08
4.23
4.11
3.72
3.17
2.63
2.23
2.01
1.91
1.82
1.68
1.47
1.27
1.15
1.15
1.25
1.37
1.42
1.38
1.29
1.20
1.14
1.08
0.95
0.68
0.25
-0.32
-1.01
-1.76
-2.52
-3.23
-3.81
-4.22
-4.47
-4.65
-4.87
-5.28
-5.97
-6.94
-8.05
-9.09
-9.76
-9.81
-9.08
-7.58
-5.52
-3.19
-0.92
1.05
2.57
3.59
4.13
4.22
3.97
3.52
3.06
2.76
2.72
2.94
3.34
3.80
4.23
4.56
4.74
4.76
4.61
4.33
3.96
3.60
3.34
3.20
3.16
3.16
3.14
3.02
2.78
2.43
2.03
1.62
1.26
0.94
0.64
0.26
-0.27
-1.00
-1.92
-2.96
-3.99
-4.89
-5.58
-6.02
-6.24
-6.33
-6.48
-6.82
-7.48
-8.42
-9.51
-10.45
-10.95
-10.77
-9.83
-8.19
-6.12
-3.95
-1.98
-0.43
0.68
1.43
1.98
2.48
2.98
3.46
3.86
4.14
4.33
4.51
4.79
5.24
5.80
6.35
6.75
6.93
6.92
6.81
6.67
6.54
6.34
6.00
5.42
4.64
3.76
2.96
2.38
2.11
2.10
2.24
2.35
2.27
1.92
1.33
0.63
-0.04
-0.57
-0.91
-1.11
-1.21
-1.30
-1.43
-1.67
-2.06
-2.66
-3.42
-4.24
-5.00
-5.58
-5.98
-6.31
-6.70
-7.27
-8.05
-8.92
-9.71
-10.21
-10.26
-9.77
-8.75
-7.26
-5.45
-3.46
-1.48
0.36
1.95
3.25
4.28
5.08
5.68
6.08
6.27
6.25
6.06
5.78
5.54
5.42
5.43
5.51
5.55
5.48
5.34
5.22
5.26
5.49
5.86
6.20
6.33
6.16
5.73
5.18
4.67
4.35
4.20
4.15
4.05
3.78
3.33
2.76
2.21
1.80
1.55
1.39
1.19
0.82
0.23
-0.53
-1.37
-2.17
-2.84
-3.38
-3.78
-4.10
-4.39
-4.69
-5.11
-5.69
-6.47
-7.41
-8.41
-9.30
-9.89
-10.05
-9.68
-8.77
-7.38
-5.61
-3.64
-1.65
0.16
1.65
2.74
3.44
3.79
3.89
3.86
3.80
3.80
3.87
4.02
4.22
4.45
4.66
4.84
4.97
5.03
5.03
4.96
4.84
4.69
4.52
4.28
3.96
3.54
3.06
2.57
2.14
1.81
1.57
1.36
1.16
0.95
0.73
0.52
0.30
0.04
-0.30
-0.78
-1.40
-2.12
-2.87
-3.58
-4.19
-4.67
-5.06
-5.38
-5.69
-6.04
-6.48
-7.11
-7.97
-9.05
-10.23
-11.28
-11.88
-11.78
-10.85
-9.18
-6.97
-4.56
-2.24
-0.23
1.32
2.37
2.97
3.22
3.30
3.36
3.55
3.91
4.39
4.92
5.42
5.84
6.14
6.33
6.40
6.34
6.15
5.88
5.65
5.56
5.68
5.98
6.32
6.51
6.40
5.97
5.30
4.56
3.89
3.34
2.87
2.45
2.08
1.79
1.62
1.54
1.45
1.24
0.84
0.32
-0.20
-0.62
-0.91
-1.18
-1.57
-2.13
-2.82
-3.48
-3.94
-4.12
-4.10
-4.02
-4.10
-4.44
-5.06
-5.90
-6.83
-7.76
-8.65
-9.45
-10.09
-10.43
-10.32
-9.63
-8.37
-6.67
-4.77
-2.89
-1.20
0.28
1.57
2.70
3.63
4.26
4.56
4.57
4.47
4.45
4.63
5.02
5.49
5.87
6.07
6.13
6.18
6.32
6.53
6.67
6.56
6.10
5.39
4.67
4.19
4.05
4.16
4.28
4.17
3.72
3.01
2.22
1.53
1.01
0.61
0.28
-0.03
-0.30
-0.51
-0.65
-0.80
-1.04
-1.44
-1.96
-2.51
-2.99
-3.36
-3.64
-3.92
-4.26
-4.70
-5.27
-5.93
-6.68
-7.48
-8.31
-9.08
-9.72
-10.10
-10.14
-9.80
-9.04
-7.90
-6.43
-4.73
-2.91
-1.10
0.57
2.01
3.14
3.94
4.41
4.60
4.57
4.45
4.32
4.28
4.35
4.52
4.76
4.96
5.08
5.07
5.00
4.95
5.00
5.16
5.33
5.39
5.24
4.90
4.49
4.16
3.98
3.90
3.77
3.45
2.89
2.19
1.56
1.17
1.05
1.12
1.19
1.07
0.65
-0.04
-0.88
-1.71
-2.40
-2.91
-3.26
-3.55
-3.82
-4.09
-4.33
-4.50
-4.63
-4.79
-5.08
-5.61
-6.38
-7.29
-8.23
-9.08
-9.75
-10.25
-10.50
-10.43
-9.89
-8.80
-7.18
-5.19
-3.13
-1.28
0.17
1.18
1.88
2.42
2.91
3.36
3.71
3.92
3.99
4.03
4.16
4.45
4.90
5.44
5.93
6.29
6.47
6.48
6.38
6.22
6.02
5.82
5.59
5.32
5.02
4.70
4.41
4.13
3.80
3.35
2.76
2.08
1.45
0.96
0.65
0.43
0.17
-0.23
-0.76
-1.31
-1.77
-2.06
-2.22
-2.37
-2.60
-2.97
-3.46
-4.00
-4.55
-5.07
-5.59
-6.14
-6.81
-7.64
-8.59
-9.57
-10.35
-10.71
-10.43
-9.48
-7.96
-6.12
-4.25
-2.55
-1.08
0.19
1.32
2.34
3.18
3.74
3.97
3.89
3.63
3.36
3.23
3.29
3.55
3.94
4.37
4.77
5.07
5.24
5.25
5.08
4.74
4.27
3.69
3.08
2.50
2.03
1.74
1.67
1.79
2.01
2.18
2.19
1.98
1.54
0.95
0.27
-0.46
-1.22
-1.98
-2.70
-3.31
-3.74
-4.00
-4.14
-4.28
-4.48
-4.80
-5.22
-5.69
-6.19
-6.74
-7.38
-8.13
-8.93
-9.61
-9.98
-9.84
-9.11
-7.81
-6.07
-4.07
-2.01
-0.05
1.65
2.97
3.84
4.26
4.33
4.22
4.12
4.16
4.38
4.72
5.08
5.37
5.57
5.69
5.74
5.74
5.68
5.55
5.40
5.31
5.32
5.41
5.43
5.21
4.63
3.75
2.75
1.91
1.39
1.24
1.29
1.36
1.28
1.03
0.66
0.26
-0.14
-0.55
-0.98
-1.44
-1.85
-2.15
-2.31
-2.36
-2.41
-2.55
-2.84
-3.22
-3.61
-3.98
-4.35
-4.83
-5.55
-6.59
-7.86
-9.12
-10.05
-10.36
-9.90
-8.69
-6.91
-4.81
-2.65
-0.58
1.28
2.83
4.01
4.73
4.97
4.79
4.39
4.00
3.82
3.93
4.32
4.84
5.32
5.66
5.81
5.80
5.71
5.59
5.46
5.30
5.12
4.91
4.65
4.38
4.09
3.81
3.55
3.30
3.06
2.78
2.44
2.00
1.49
0.95
0.48
0.15
0.00
-0.04
-0.10
-0.32
-0.76
-1.39
-2.06
-2.59
-2.89
-2.98
-3.06
-3.38
-4.13
-5.33
-6.81
-8.29
-9.44
-10.05
-10.04
-9.44
-8.33
-6.85
-5.13
-3.34
-1.63
-0.15
1.02
1.89
2.47
2.84
3.06
3.16
3.19
3.24
3.36
3.59
3.93
4.32
4.66
4.88
4.95
4.90
4.78
4.63
4.50
4.39
4.29
4.21
4.12
4.00
3.82
3.57
3.28
2.96
2.65
2.34
1.99
1.54
0.98
0.35
-0.30
-0.87
-1.35
-1.78
-2.28
-2.91
-3.69
-4.54
-5.30
-5.86
-6.18
-6.33
-6.43
-6.67
-7.13
-7.80
-8.55
-9.16
-9.37
-8.99
-7.96
-6.38
-4.48
-2.49
-0.62
1.02
2.36
3.40
4.13
4.57
4.77
4.80
4.76
4.75
4.82
4.97
5.16
5.32
5.40
5.37
5.21
4.96
4.71
4.53
4.50
4.56
4.59
4.42
3.96
3.24
2.40
1.64
1.09
0.75
0.49
0.21
-0.17
-0.60
-0.95
-1.14
-1.15
-1.11
-1.18
-1.50
-2.12
-2.91
-3.67
-4.17
-4.34
-4.26
-4.15
-4.25
-4.74
-5.65
-6.83
-8.04
-9.00
-9.49
-9.38
-8.68
-7.50
-6.00
-4.41
-2.89
-1.55
-0.42
0.53
1.36
2.11
2.78
3.37
3.89
4.32
4.67
4.92
5.02
4.98
4.79
4.51
4.19
3.92
3.73
3.68
3.80
4.08
4.52
5.01
5.43
5.62
5.45
4.92
4.11
3.19
2.30
1.53
0.89
0.32
-0.21
-0.71
-1.15
-1.48
-1.64
-1.54
-1.07
-0.09
1.50
3.60
5.89
7.77
8.56
7.63
4.65
-0.39
-7.21
-15.40
-24.47
-33.84
-42.80
-50.46
-55.84
-58.17
-57.06
-52.69
-45.70
-36.97
-27.36
-17.57
-8.07
0.76
8.52
14.77
19.09
21.19
21.07
19.18
16.38
13.82
12.58
13.41
16.49
21.42
27.44
33.72
39.60
44.68
48.82
52.02
54.35
55.94
56.93
57.44
57.44
56.77
55.18
52.47
48.69
44.16
39.40
34.90
30.96
27.58
24.50
21.40
18.10
14.61
11.20
8.17
5.69
3.74
2.13
0.58
-1.08
-2.84
-4.55
-6.06
-7.32
-8.50
-9.83
-11.54
-13.62
-15.83
-17.76
-19.03
-19.46
-19.17
-18.52
-17.97
-17.84
-18.22
-19.02
-19.97
-20.80
-21.25
-21.13
-20.36
-19.00
-17.30
-15.67
-14.46
-13.75
-13.28
-12.46
-10.75
-7.96
-4.40
-0.80
2.10
3.90
4.64
4.77
4.79
5.03
5.61
6.47
7.52
8.75
10.11
11.53
12.79
13.68
14.00
13.70
12.80
11.31
9.21
6.36
2.57
-2.23
-7.92
-14.09
-20.20
-25.69
-30.13
-33.37
-35.35
-36.08
-35.41
-33.12
-29.04
-23.23
-16.16
-8.65
-1.65
4.00
7.87
9.98
10.75
10.81
10.79
11.05
11.53
11.82
11.27
9.34
5.72
0.30
-6.92
-15.92
-26.47
-37.96
-49.15
-58.37
-64.00
-65.13
-61.98
-55.78
-48.25
-40.90
-34.56
-29.33
-24.89
-20.81
-16.76
-12.52
-7.87
-2.61
3.38
10.02
17.02
23.85
29.86
34.34
36.57
35.98
32.40
26.23
18.43
10.27
2.84
-3.40
-8.65
-13.47
-18.25
-22.81
-26.41
-28.17
-27.68
-25.25
-21.83
-18.41
-15.56
-13.19
-10.81
-7.92
-4.45
-0.81
2.38
4.59
5.77
6.31
6.90
8.22
10.67
14.20
18.38
22.48
25.73
27.53
27.61
26.13
23.51
20.29
16.81
13.16
9.25
5.00
0.57
-3.57
-6.77
-8.48
-8.51
-7.10
-4.85
-2.44
-0.38
1.10
2.03
2.54
2.80
2.97
3.19
3.66
4.58
6.12
8.30
10.90
13.48
15.46
16.32
15.73
13.69
10.55
6.88
3.34
0.45
-1.51
-2.63
-3.30
-4.07
-5.34
-7.20
-9.26
-10.90
-11.55
-11.01
-9.51
-7.62
-5.88
-4.59
-3.66
-2.81
-1.76
-0.42
1.17
2.95
5.00
7.55
10.79
14.69
18.73
21.91
22.95
20.67
14.63
5.42
-5.15
-14.55
-20.30
-20.87
-16.25
-7.90
1.88
10.83
17.36
20.80
21.06
18.28
12.58
4.21
-6.20
-17.37
-27.58
-35.19
-39.24
-39.76
-37.72
-34.49
-31.30
-28.82
-27.10
-25.79
-24.42
-22.74
-20.71
-18.43
-16.04
-13.58
-11.02
-8.29
-5.33
-2.14
1.22
4.62
7.91
10.93
13.56
15.73
17.50
18.94
20.08
20.86
21.01
20.25
18.34
15.29
11.36
7.04
2.85
-0.82
-3.77
-5.93
-7.33
-8.03
-8.09
-7.64
-6.86
-5.95
-5.09
-4.33
-3.67
-3.05
-2.43
-1.83
-1.31
-0.92
-0.65
-0.51
-0.45
-0.46
-0.54
-0.66
-0.77
-0.82
-0.78
-0.66
-0.50
-0.37
-0.34
-0.49
-0.84
-1.34
-1.91
-2.41
-2.74
-2.91
-3.02
-3.22
-3.65
-4.27
-4.87
-5.12
-4.70
-3.42
-1.31
1.47
4.67
8.08
11.50
14.81
17.88
20.59
22.88
24.78
26.44
28.09
29.99
32.32
35.09
38.09
40.93
43.10
44.15
43.75
41.82
38.55
34.33
29.68
25.09
20.95
17.41
14.42
11.75
9.06
6.08
2.71
-0.95
-4.59
-7.79
-10.16
-11.38
-11.29
-9.92
-7.54
-4.66
-1.94
-0.08
0.38
-0.71
-3.12
-6.31
-9.57
-12.32
-14.24
-15.31
-15.74
-15.80
-15.75
-15.76
-15.92
-16.30
-16.92
-17.74
-18.53
-18.95
-18.56
-17.12
-14.67
-11.65
-8.68
-6.37
-5.01
-4.53
-4.58
-4.79
-4.93
-4.95
-4.88
-4.72
-4.39
-3.77
-2.78
-1.50
-0.10
1.24
2.45
3.50
4.45
5.29
5.94
6.26
6.15
5.55
4.57
3.33
2.02
0.79
-0.26
-1.00
-1.34
-1.16
-0.38
0.97
2.76
4.70
6.47
7.77
8.45
8.46
7.87
6.81
5.34
3.53
1.46
-0.78
-3.05
-5.21
-7.19
-8.97
-10.53
-11.83
-12.75
-13.13
-12.81
-11.72
-9.93
-7.60
-4.96
-2.22
0.45
2.96
5.25
7.26
8.93
10.15
10.80
10.78
10.08
8.80
7.15
5.45
3.99
3.02
2.66
2.89
3.58
4.51
5.49
6.39
7.16
7.84
8.46
8.99
9.34
9.37
8.99
8.23
7.26
6.29
5.53
5.07
4.90
4.93
5.07
5.23
5.38
5.48
5.49
5.35
4.98
4.33
3.43
2.36
1.25
0.21
-0.74
-1.63
-2.56
-3.61
-4.78
-5.99
-7.17
-8.26
-9.32
-10.51
-11.93
-13.55
-15.13
-16.26
-16.53
-15.69
-13.77
-11.01
-7.83
-4.59
-1.58
1.06
3.23
4.86
5.92
6.42
6.47
6.27
6.05
5.94
6.02
6.21
6.44
6.62
6.73
6.75
6.70
6.60
6.48
6.39
6.37
6.45
6.59
6.72
6.72
6.51
6.09
5.54
4.99
4.55
4.25
4.02
3.76
3.36
2.81
2.14
1.47
0.89
0.52
0.39
0.47
0.70
0.93
1.04
0.91
0.51
-0.10
-0.81
-1.55
-2.27
-2.99
-3.77
-4.66
-5.67
-6.77
-7.96
-9.19
-10.42
-11.55
-12.38
-12.71
-12.36
-11.28
-9.58
-7.51
-5.38
-3.40
-1.64
-0.10
1.28
2.47
3.36
3.82
3.77
3.32
2.67
2.07
1.74
1.74
2.03
2.49
3.00
3.49
3.89
4.19
4.37
4.46
4.49
4.46
4.37
4.18
3.88
3.48
3.04
2.64
2.31
2.03
1.71
1.26
0.61
-0.24
-1.22
-2.22
-3.15
-3.95
-4.62
-5.20
-5.78
-6.42
-7.14
-7.87
-8.49
-8.88
-8.97
-8.76
-8.37
-7.97
-7.70
-7.69
-8.00
-8.65
-9.61
-10.76
-11.87
-12.67
-12.84
-12.19
-10.74
-8.71
-6.42
-4.19
-2.23
-0.62
0.65
1.58
2.15
2.33
2.17
1.80
1.41
1.14
1.06
1.07
1.01
0.72
0.14
-0.71
-1.63
-2.39
-2.73
-2.46
-1.57
-0.21
1.32
2.73
3.79
4.44
4.76
4.87
4.84
4.70
4.44
4.04
3.58
3.16
2.89
2.79
2.84
2.96
3.09
3.15
3.13
2.99
2.70
2.20
1.47
0.48
-0.76
-2.23
-3.85
-5.54
-7.20
-8.71
-9.97
-10.92
-11.55
-11.90
-12.09
-12.23
-12.39
-12.57
-12.61
-12.27
-11.31
-9.54
-6.98
-3.75
-0.08
3.83
7.83
11.82
15.67
19.17
22.03
23.93
24.71
24.44
23.46
22.21
21.06
20.16
19.43
18.69
17.82
16.84
15.91
15.16
14.60
14.08
13.37
12.32
10.93
9.34
7.74
6.25
4.86
3.47
1.99
0.36
-1.34
-3.01
-4.54
-5.91
-7.18
-8.47
-9.88
-11.39
-12.82
-13.93
-14.50
-14.49
-14.05
-13.49
-13.10
-13.01
-13.16
-13.41
-13.61
-13.73
-13.84
-14.05
-14.38
-14.76
-15.00
-14.89
-14.27
-13.07
-11.28
-8.92
-6.06
-2.82
0.64
4.04
7.12
9.63
11.46
12.62
13.27
13.56
13.67
13.68
13.63
13.51
13.30
12.97
12.55
12.04
11.45
10.74
9.85
8.71
7.24
5.47
3.48
1.44
-0.42
-1.97
-3.23
-4.36
-5.60
-7.18
-9.17
-11.48
-13.90
-16.12
-17.87
-18.89
-19.02
-18.23
-16.68
-14.77
-13.08
-12.24
-12.79
-14.99
-18.74
-23.65
-29.15
-34.61
-39.42
-43.09
-45.27
-45.80
-44.76
-42.42
-39.18
-35.49
-31.66
-27.92
-24.29
-20.69
-17.02
-13.21
-9.25
-5.16
-1.07
2.89
6.52
9.61
12.01
13.66
14.64
15.11
15.28
15.32
15.31
15.27
15.17
15.01
14.84
14.71
14.66
14.71
14.80
14.87
14.85
14.71
14.43
14.05
13.62
13.17
12.76
12.39
12.05
11.69
11.26
10.70
10.01
9.22
8.42
7.69
7.14
6.80
6.64
6.57
6.48
6.27
5.86
5.26
4.50
3.66
2.85
2.16
1.64
1.26
0.89
0.38
-0.40
-1.49
-2.82
-4.22
-5.49
-6.43
-6.91
-6.85
-6.24
-5.08
-3.40
-1.28
1.12
3.63
5.99
8.00
9.53
10.53
11.10
11.32
11.33
11.16
10.88
10.52
10.15
9.85
9.70
9.71
9.84
9.96
9.99
9.87
9.63
9.31
8.98
8.64
8.24
7.73
7.07
6.29
5.45
4.67
4.00
3.46
3.02
2.65
2.32
2.03
1.80
1.60
1.36
0.96
0.32
-0.54
-1.54
-2.49
-3.25
-3.74
-3.98
-4.10
-4.29
-4.71
-5.47
-6.52
-7.69
-8.74
-9.39
-9.45
-8.83
-7.58
-5.81
-3.71
-1.49
0.64
2.52
4.03
5.12
5.81
6.18
6.31
6.30
6.25
6.22
6.26
6.37
6.52
6.67
6.81
6.99
7.28
7.69
8.15
8.46
8.44
7.95
7.05
5.94
4.90
4.17
3.83
3.81
3.93
4.02
3.91
3.54
2.91
2.10
1.25
0.47
-0.11
-0.44
-0.54
-0.49
-0.41
-0.42
-0.57
-0.82
-1.13
-1.44
-1.76
-2.15
-2.68
-3.39
-4.25
-5.15
-6.00
-6.80
-7.59
-8.44
-9.36
-10.22
-10.78
-10.78
-10.05
-8.58
-6.53
-4.17
-1.80
0.35
2.15
3.55
4.55
5.18
5.49
5.56
5.43
5.20
4.92
4.68
4.56
4.63
4.92
5.39
5.91
6.34
6.54
6.49
6.27
6.00
5.76
5.55
5.31
4.96
4.47
3.90
3.33
2.83
2.38
1.93
1.41
0.83
0.21
-0.39
-0.92
-1.35
-1.71
-2.01
-2.30
-2.59
-2.94
-3.36
-3.85
-4.31
-4.64
-4.76
-4.71
-4.62
-4.70
-5.12
-5.91
-6.96
-8.07
-9.00
-9.57
-9.67
-9.29
-8.42
-7.11
-5.47
-3.67
-1.91
-0.37
0.88
1.84
2.60
3.22
3.71
4.03
4.17
4.15
4.06
4.01
4.08
4.25
4.47
4.65
4.71
4.62
4.35
3.95
3.43
2.85
2.30
1.84
1.46
1.13
0.75
0.27
-0.30
-0.88
-1.35
-1.61
-1.67
-1.62
-1.58
-1.66
-1.89
-2.22
-2.57
-2.90
-3.20
-3.51
-3.86
-4.27
-4.73
-5.20
-5.71
-6.32
-7.11
-8.08
-9.11
-9.98
-10.42
-10.25
-9.37
-7.88
-5.96
-3.83
-1.72
0.19
1.75
2.91
3.69
4.16
4.45
4.67
4.88
5.12
5.35
5.58
5.80
6.01
6.18
6.26
6.21
6.03
5.78
5.52
5.31
5.11
4.86
4.48
3.91
3.23
2.54
2.01
1.73
1.71
1.85
2.00
2.01
1.82
1.44
0.99
0.57
0.27
0.09
-0.04
-0.23
-0.59
-1.18
-1.99
-2.94
-3.86
-4.60
-5.07
-5.29
-5.38
-5.47
-5.66
-5.97
-6.32
-6.65
-6.91
-7.10
-7.18
-7.08
-6.63
-5.68
-4.17
-2.23
-0.12
1.81
3.31
4.27
4.72
4.79
4.60
4.25
3.79
3.27
2.79
2.47
2.39
2.58
2.94
3.36
3.68
3.86
3.93
3.96
4.03
4.13
4.21
4.18
4.01
3.69
3.26
2.84
2.52
2.37
2.43
2.64
2.86
2.92
2.69
2.14
1.35
0.48
-0.31
-0.93
-1.40
-1.81
-2.24
-2.67
-3.08
-3.40
-3.63
-3.82
-4.05
-4.39
-4.86
-5.43
-6.10
-6.86
-7.69
-8.52
-9.19
-9.48
-9.19
-8.26
-6.80
-5.06
-3.32
-1.80
-0.57
0.44
1.32
2.11
2.79
3.24
3.39
3.26
2.95
2.65
2.49
2.55
2.77
3.01
3.18
3.21
3.17
3.15
3.26
3.54
3.94
4.36
4.67
4.78
4.67
4.41
4.06
3.71
3.35
2.97
2.51
1.95
1.30
0.64
0.01
-0.54
-1.01
-1.43
-1.84
-2.22
-2.53
-2.73
-2.80
-2.83
-2.90
-3.14
-3.59
-4.23
-4.94
-5.61
-6.15
-6.55
-6.88
-7.29
-7.85
-8.56
-9.28
-9.79
-9.84
-9.26
-8.04
-6.35
-4.42
-2.47
-0.63
1.05
2.58
3.95
5.04
5.76
6.03
5.87
5.47
5.02
4.73
4.65
4.71
4.77
4.72
4.53
4.25
4.02
3.91
3.91
3.93
3.80
3.44
2.88
2.26
1.77
1.53
1.53
1.66
1.77
1.74
1.61
1.49
1.50
1.68
1.97
2.23
2.37
2.33
2.16
1.95
1.78
1.64
1.48
1.20
0.71
0.00
-0.84
-1.69
-2.42
-3.00
-3.45
-3.87
-4.37
-4.98
-5.68
-6.40
-7.11
-7.78
-8.35
-8.74
-8.78
-8.34
-7.35
-5.90
-4.19
-2.47
-0.92
0.36
1.39
2.21
2.89
3.42
3.78
3.93
3.93
3.87
3.85
3.98
4.25
4.58
4.87
5.00
4.94
4.73
4.50
4.33
4.28
4.30
4.28
4.11
3.74
3.18
2.54
1.95
1.48
1.09
0.67
0.09
-0.70
-1.59
-2.37
-2.85
-2.94
-2.76
-2.56
-2.59
-2.95
-3.56
-4.15
-4.46
-4.36
-3.96
-3.53
-3.39
-3.69
-4.44
-5.45
-6.49
-7.40
-8.10
-8.56
-8.71
-8.43
-7.59
-6.14
-4.25
-2.20
-0.34
1.08
2.00
2.54
2.85
3.07
3.23
3.33
3.37
3.39
3.45
3.59
3.82
4.08
4.28
4.40
4.43
4.41
4.36
4.27
4.10
3.84
3.52
3.21
2.98
2.85
2.75
2.63
2.43
2.16
1.85
1.51
1.09
0.51
-0.30
-1.33
-2.42
-3.39
-4.06
-4.40
-4.48
-4.47
-4.52
-4.74
-5.20
-5.89
-6.81
-7.87
-8.93
-9.74
-10.08
-9.77
-8.78
-7.23
-5.35
-3.41
-1.62
-0.12
1.03
1.84
2.33
2.50
2.39
2.03
1.51
0.96
0.51
0.29
0.37
0.76
1.40
2.19
3.02
3.78
4.36
4.70
4.78
4.66
4.43
4.15
3.84
3.48
3.00
2.32
1.39
0.30
-0.81
-1.79
-2.53
-3.04
-3.39
-3.74
-4.32
-5.28
-6.60
-8.11
-9.54
-10.64
-11.26
-11.34
-11.12
-11.13
-11.89
-13.50
-15.57
-17.35
-18.03
-17.06
-14.15
-9.71
-4.87
-0.76
2.28
4.71
7.50
11.60
17.54
25.46
34.52
42.90
48.81
51.49
51.02
48.26
44.60
41.96
43.05
49.93
62.60
78.83
94.50
103.90
101.37
83.23
46.37
-4.52
-57.54
-100.35
-126.63
-137.22
-137.23
-131.87
-124.77
-118.12
-113.33
-111.90
-115.46
-125.15
-136.06
-141.35
-134.46
-111.84
-74.67
-28.45
19.69
58.70
82.24
91.34
91.54
89.36
88.75
92.01
95.97
96.90
91.65
79.44
61.85
41.60
21.98
5.83
-5.07
-10.42
-10.80
-7.50
-2.26
3.59
8.51
11.00
9.73
4.04
-5.83
-18.02
-29.84
-38.29
-41.34
-39.04
-33.28
-26.91
-22.28
-20.55
-21.15
-22.58
-23.14
-21.63
-17.68
-11.52
-3.72
5.07
14.06
22.50
29.63
34.83
37.85
38.91
38.68
38.12
38.31
40.03
43.61
48.80
54.88
60.93
66.19
70.26
73.21
75.40
77.30
79.24
81.25
83.20
84.77
85.61
85.24
83.07
78.37
70.45
59.00
44.40
27.76
10.82
-4.62
-17.18
-26.19
-31.74
-34.42
-34.93
-33.85
-31.69
-28.89
-25.93
-23.19
-20.72
-18.02
-14.15
-8.08
0.82
12.41
25.84
39.79
52.72
62.94
68.45
67.07
56.79
36.71
7.92
-26.18
-60.61
-90.38
-112.19
-125.36
-131.62
-133.90
-134.69
-135.14
-134.98
-133.25
-129.16
-122.45
-113.20
-101.20
-85.80
-66.27
-42.68
-16.70
8.41
28.73
41.20
44.90
41.45
34.23
26.90
22.00
20.25
20.75
21.96
22.60
22.24
21.16
19.97
19.07
18.39
17.49
15.93
13.57
10.77
8.20
6.50
5.90
6.07
6.30
5.81
4.15
1.31
-2.34
-6.33
-10.30
-14.07
-17.55
-20.62
-23.03
-24.45
-24.62
-23.56
-21.57
-19.20
-17.04
-15.61
-15.15
-15.60
-16.57
-17.51
-17.88
-17.32
-15.77
-13.43
-10.64
-7.77
-5.07
-2.68
-0.69
0.82
1.83
2.36
2.58
2.72
3.00
3.54
4.27
5.02
5.60
5.91
5.96
5.87
5.79
5.79
5.91
6.11
6.33
6.52
6.64
6.63
6.48
6.21
5.86
5.50
5.17
4.87
4.55
4.16
3.67
3.11
2.54
2.01
1.54
1.12
0.71
0.28
-0.20
-0.77
-1.47
-2.27
-3.15
-3.97
-4.64
-5.08
-5.36
-5.66
-6.18
-7.07
-8.32
-9.75
-11.07
-11.99
-12.29
-11.91
-10.87
-9.28
-7.26
-4.98
-2.59
-0.24
1.93
3.82
5.37
6.58
7.48
8.14
8.62
8.97
9.27
9.57
9.93
10.39
10.93
11.48
11.91
12.11
12.03
11.70
11.24
10.77
10.39
10.11
9.82
9.45
8.94
8.32
7.70
7.19
6.81
6.49
6.11
5.57
4.89
4.18
3.57
3.16
2.90
2.66
2.31
1.80
1.18
0.59
0.09
-0.28
-0.62
-1.01
-1.49
-2.02
-2.52
-2.95
-3.33
-3.76
-4.35
-5.18
-6.29
-7.62
-9.02
-10.31
-11.27
-11.71
-11.48
-10.55
-8.96
-6.88
-4.53
-2.14
0.08
1.98
3.53
4.73
5.62
6.26
6.65
6.83
6.80
6.62
6.37
6.16
6.08
6.19
6.50
6.95
7.44
7.85
8.12
8.19
8.06
7.77
7.36
6.88
6.33
5.73
5.08
4.42
3.83
3.36
3.04
2.86
2.76
2.65
2.46
2.14
1.68
1.10
0.42
-0.30
-1.06
-1.84
-2.60
-3.32
-3.99
-4.61
-5.23
-5.92
-6.76
-7.78
-8.94
-10.06
-10.93
-11.32
-11.07
-10.17
-8.75
-6.99
-5.08
-3.16
-1.33
0.33
1.79
3.01
4.00
4.78
5.37
5.78
6.01
6.08
6.03
5.95
5.93
6.05
6.30
6.61
6.86
6.95
6.86
6.59
6.23
5.87
5.57
5.37
5.25
5.15
4.99
4.69
4.27
3.79
3.34
2.98
2.72
2.47
2.12
1.62
1.00
0.36
-0.19
-0.62
-0.99
-1.45
-2.13
-3.11
-4.31
-5.53
-6.57
-7.30
-7.72
-7.88
-7.91
-8.03
-8.52
-9.58
-11.20
-13.12
-14.85
-15.82
-15.40
-13.23
-9.55
-5.10
-0.75
2.92
5.85
8.37
10.93
14.03
17.68
21.29
23.82
24.43
23.05
20.36
17.50
15.63
15.94
19.06
24.85
32.53
40.91
48.76
54.44
55.93
49.31
31.96
4.90
-26.68
-56.59
-80.64
-97.00
-105.82
-107.91
-104.57
-96.88
-86.48
-75.77
-68.00
-66.67
-73.43
-86.82
-101.24
-110.22
-105.49
-82.85
-44.38
2.16
46.05
78.59
94.42
95.07
87.49
80.10
78.46
83.72
94.88
106.34
112.29
107.35
88.42
55.65
13.79
-28.82
-62.94
-81.41
-82.30
-68.63
-46.69
-22.50
-0.28
18.43
33.78
44.71
51.14
53.93
55.34
55.67
55.61
54.58
51.73
46.75
40.30
33.84
28.16
23.03
17.24
10.81
3.36
-4.37
-11.03
-15.55
-17.39
-16.96
-15.11
-12.67
-9.64
-5.77
-0.72
5.43
11.93
17.66
21.35
22.06
19.68
15.10
9.75
5.22
2.67
2.30
3.45
4.86
5.18
3.60
0.17
-4.39
-8.93
-12.34
-13.98
-13.76
-12.05
-9.44
-6.51
-3.72
-1.51
-0.24
-0.14
-1.36
-3.83
-7.32
-11.54
-16.19
-20.93
-25.42
-29.23
-31.98
-33.50
-33.92
-33.67
-33.32
-33.30
-33.69
-34.23
-34.47
-33.95
-32.43
-29.90
-26.47
-22.27
-17.37
-11.85
-5.94
-0.15
4.76
8.02
9.12
8.08
5.54
2.50
-0.02
-1.33
-1.28
-0.20
1.29
2.56
3.20
3.11
2.42
1.49
0.73
0.48
0.93
2.00
3.48
5.05
6.57
8.08
9.88
12.26
15.35
18.89
22.19
24.35
24.54
22.29
17.69
11.35
4.22
-2.71
-8.77
-13.87
-18.53
-23.62
-29.94
-37.67
-46.08
-53.56
-58.00
-57.49
-50.99
-38.69
-22.10
-3.74
13.27
25.90
31.97
30.91
24.11
14.52
5.66
0.19
-0.97
1.30
5.12
8.72
11.17
12.40
12.71
12.25
10.77
8.09
4.42
0.58
-2.38
-3.64
-2.93
-0.56
2.85
6.51
9.71
11.81
12.45
11.72
10.20
8.76
8.19
8.76
10.10
11.46
12.18
12.11
11.70
11.66
12.58
14.56
17.22
19.83
21.69
22.33
21.62
19.76
17.16
14.39
12.03
10.56
10.23
10.99
12.48
14.14
15.44
16.04
15.88
15.20
14.49
14.38
15.45
18.02
21.94
26.45
30.29
32.07
30.73
26.01
18.49
9.43
0.21
-8.02
-14.58
-19.16
-21.63
-21.93
-20.11
-16.52
-11.92
-7.42
-4.17
-3.03
-4.33
-7.77
-12.61
-17.83
-22.35
-25.27
-25.96
-24.23
-20.34
-15.01
-9.17
-3.72
0.71
3.93
5.99
7.16
7.64
7.62
7.25
6.82
6.70
7.28
8.70
10.71
12.62
13.55
12.76
10.01
5.69
0.65
-4.14
-7.87
-10.20
-11.22
-11.28
-10.78
-10.04
-9.25
-8.52
-7.98
-7.81
-8.28
-9.62
-12.00
-15.45
-19.86
-25.01
-30.58
-36.13
-41.07
-44.72
-46.36
-45.46
-41.88
-35.99
-28.57
-20.67
-13.22
-6.86
-1.81
2.01
4.84
6.92
8.39
9.33
9.80
9.89
9.72
9.43
9.11
8.76
8.31
7.66
6.74
5.61
4.38
3.22
2.24
1.45
0.76
0.09
-0.65
-1.47
-2.36
-3.31
-4.35
-5.51
-6.78
-8.05
-9.14
-9.82
-9.95
-9.46
-8.36
-6.72
-4.65
-2.31
0.11
2.37
4.25
5.61
6.41
6.74
6.76
6.66
6.59
6.64
6.85
7.16
7.52
7.82
7.98
7.94
7.73
7.41
7.07
6.78
6.57
6.39
6.19
5.90
5.50
4.99
4.44
3.89
3.35
2.82
2.29
1.74
1.16
0.57
-0.04
-0.68
-1.35
-2.02
-2.65
-3.18
-3.58
-3.86
-4.12
-4.49
-5.10
-6.02
-7.18
-8.40
-9.39
-9.85
-9.60
-8.58
-6.90
-4.79
-2.52
-0.35
1.54
3.05
4.16
4.88
5.28
5.43
5.41
5.33
5.26
5.27
5.40
5.64
5.96
6.27
6.52
6.66
6.66
6.53
6.33
6.09
5.91
5.82
5.82
5.87
5.84
5.63
5.17
4.49
3.69
2.88
2.13
1.49
0.94
0.42
-0.08
-0.58
-1.07
-1.52
-1.92
-2.31
-2.68
-3.05
-3.41
-3.80
-4.28
-4.92
-5.79
-6.86
-8.01
-8.98
-9.52
-9.44
-8.67
-7.33
-5.59
-3.66
-1.69
0.17
1.80
3.08
3.92
4.33
4.40
4.30
4.17
4.09
4.11
4.18
4.26
4.35
4.46
4.59
4.72
4.82
4.86
4.82
4.74
4.63
4.49
4.32
4.06
3.71
3.29
2.85
2.41
1.97
1.50
0.95
0.29
-0.43
-1.15
-1.81
-2.37
-2.82
-3.21
-3.57
-3.91
-4.27
-4.71
-5.31
-6.11
-7.10
-8.17
-9.15
-9.85
-10.11
-9.84
-9.01
-7.66
-5.88
-3.81
-1.66
0.34
2.01
3.25
4.10
4.62
4.88
4.92
4.72
4.34
3.91
3.60
3.59
3.91
4.50
5.16
5.71
6.04
6.15
6.09
5.90
5.58
5.12
4.52
3.87
3.28
2.85
2.59
2.43
2.25
1.92
1.40
0.78
0.22
-0.14
-0.21
-0.09
0.04
-0.04
-0.45
-1.16
-2.04
-2.90
-3.60
-4.13
-4.56
-5.03
-5.60
-6.32
-7.17
-8.15
-9.23
-10.34
-11.33
-11.99
-12.08
-11.50
-10.27
-8.62
-6.79
-5.01
-3.38
-1.89
-0.50
0.75
1.78
2.46
2.79
2.86
2.88
3.07
3.50
4.11
4.75
5.22
5.42
5.36
5.16
4.98
4.92
4.97
5.11
5.23
5.28
5.23
5.07
4.87
4.65
4.45
4.24
3.95
3.52
2.90
2.13
1.31
0.59
0.07
-0.19
-0.28
-0.33
-0.51
-0.93
-1.62
-2.53
-3.55
-4.58
-5.51
-6.30
-6.95
-7.49
-7.97
-8.42
-8.80
-8.97
-8.75
-7.98
-6.64
-4.84
-2.80
-0.77
1.10
2.73
4.15
5.36
6.32
6.94
7.18
7.07
6.76
6.46
6.32
6.37
6.52
6.62
6.58
6.43
6.29
6.28
6.42
6.60
6.65
6.40
5.85
5.12
4.40
3.83
3.48
3.26
3.04
2.74
2.32
1.83
1.31
0.78
0.21
-0.43
-1.11
-1.80
-2.38
-2.80
-3.08
-3.32
-3.67
-4.24
-5.08
-6.16
-7.36
-8.58
-9.70
-10.63
-11.27
-11.48
-11.12
-10.13
-8.52
-6.44
-4.13
-1.84
0.19
1.85
3.12
4.07
4.77
5.26
5.52
5.59
5.52
5.43
5.49
5.78
6.25
6.79
7.21
7.40
7.31
7.03
6.63
6.19
5.73
5.24
4.74
4.27
3.87
3.54
3.27
2.98
2.66
2.33
2.03
1.77
1.56
1.29
0.89
0.29
-0.49
-1.35
-2.18
-2.90
-3.49
-4.00
-4.50
-5.05
-5.66
-6.37
-7.19
-8.17
-9.28
-10.40
-11.32
-11.76
-11.51
-10.48
-8.78
-6.66
-4.39
-2.22
-0.25
1.47
2.91
4.04
4.82
5.20
5.23
4.98
4.61
4.30
4.16
4.25
4.51
4.81
5.01
5.03
4.85
4.58
4.32
4.15
4.06
3.99
3.82
3.52
3.09
2.63
2.21
1.83
1.45
0.98
0.38
-0.32
-1.02
-1.63
-2.11
-2.48
-2.82
-3.22
-3.75
-4.45
-5.34
-6.39
-7.53
-8.57
-9.30
-9.52
-9.14
-8.18
-6.76
-5.04
-3.18
-1.28
0.54
2.16
3.45
4.35
4.88
5.15
5.29
5.38
5.44
5.42
5.29
5.06
4.81
4.62
4.55
4.57
4.63
4.61
4.43
4.04
3.46
2.77
2.10
1.59
1.30
1.23
1.25
1.21
1.00
0.56
-0.06
-0.78
-1.52
-2.25
-2.99
-3.75
-4.55
-5.38
-6.28
-7.22
-8.19
-9.09
-9.73
-9.90
-9.47
-8.40
-6.80
-4.93
-3.00
-1.22
0.33
1.64
2.72
3.61
4.31
4.84
5.19
5.40
5.47
5.44
5.35
5.22
5.07
4.92
4.79
4.68
4.60
4.55
4.49
4.37
4.13
3.76
3.28
2.75
2.22
1.73
1.27
0.80
0.27
-0.37
-1.08
-1.78
-2.37
-2.79
-3.04
-3.23
-3.49
-3.96
-4.71
-5.70
-6.81
-7.84
-8.60
-8.93
-8.74
-8.01
-6.79
-5.18
-3.36
-1.50
0.21
1.66
2.81
3.67
4.29
4.71
4.92
4.93
4.76
4.46
4.15
3.92
3.87
4.03
4.39
4.87
5.34
5.65
5.70
5.43
4.87
4.12
3.30
2.53
1.86
1.31
0.85
0.45
0.10
-0.25
-0.62
-1.07
-1.65
-2.34
-3.10
-3.82
-4.40
-4.80
-5.07
-5.37
-5.88
-6.69
-7.71
-8.68
-9.24
-9.08
-8.07
-6.35
-4.18
-1.93
0.13
1.85
3.19
4.18
4.85
5.22
5.28
5.11
4.79
4.49
4.36
4.51
4.90
5.42
5.87
6.13
6.14
5.96
5.68
5.39
5.09
4.77
4.37
3.89
3.34
2.73
2.06
1.30
0.46
-0.42
-1.23
-1.84
-2.17
-2.27
-2.27
-2.32
-2.57
-3.03
-3.65
-4.31
-4.94
-5.50
-6.06
-6.67
-7.38
-8.14
-8.81
-9.23
-9.26
-8.78
-7.75
-6.21
-4.30
-2.22
-0.21
1.49
2.75
3.51
3.85
3.93
3.94
4.03
4.27
4.64
5.06
5.45
5.74
5.90
5.92
5.81
5.60
5.30
4.96
4.62
4.34
4.13
3.99
3.87
3.73
3.53
3.25
2.95
2.67
2.46
2.29
2.11
1.83
1.37
0.68
-0.17
-1.09
-1.93
-2.60
-3.05
-3.31
-3.46
-3.62
-3.88
-4.32
-4.93
-5.70
-6.58
-7.54
-8.49
-9.34
-9.91
-9.98
-9.38
-8.06
-6.13
-3.88
-1.59
0.44
2.10
3.37
4.26
4.81
5.02
4.93
4.63
4.27
3.97
3.86
3.93
4.11
4.31
4.43
4.43
4.33
4.18
4.07
4.01
4.01
3.99
3.90
3.67
3.30
2.80
2.24
1.68
1.15
0.69
0.29
-0.05
-0.37
-0.67
-0.99
-1.36
-1.79
-2.32
-2.93
-3.55
-4.12
-4.55
-4.84
-5.06
-5.35
-5.86
-6.68
-7.72
-8.78
-9.55
-9.78
-9.30
-8.10
-6.31
-4.18
-1.94
0.16
1.95
3.32
4.21
4.62
4.63
4.34
3.93
3.55
3.34
3.35
3.56
3.89
4.27
4.62
4.91
5.11
5.23
5.26
5.19
5.00
4.68
4.26
3.78
3.33
2.98
2.77
2.66
2.52
2.24
1.74
1.08
0.38
-0.20
-0.60
-0.87
-1.16
-1.56
-2.07
-2.59
-3.01
-3.27
-3.44
-3.68
-4.12
-4.79
-5.60
-6.37
-7.02
-7.54
-8.04
-8.63
-9.34
-10.00
-10.31
-10.00
-8.92
-7.16
-4.98
-2.72
-0.68
1.00
2.30
3.24
3.85
4.12
4.08
3.82
3.50
3.32
3.36
3.63
4.00
4.33
4.53
4.60
4.64
4.75
4.99
5.36
5.74
6.00
5.99
5.69
5.13
4.47
3.86
3.43
3.23
3.17
3.12
2.96
2.63
2.16
1.61
1.05
0.52
0.01
-0.47
-0.92
-1.35
-1.75
-2.13
-2.52
-2.91
-3.30
-3.68
-4.12
-4.67
-5.40
-6.32
-7.37
-8.45
-9.41
-10.15
-10.58
-10.65
-10.32
-9.52
-8.17
-6.26
-3.90
-1.32
1.13
3.10
4.30
4.66
4.34
3.71
3.20
3.21
3.94
5.36
7.18
9.06
10.71
12.14
13.63
15.68
18.79
23.38
29.39
36.30
43.10
48.53
51.51
51.49
48.69
44.09
39.23
35.38
33.12
31.96
30.63
27.83
22.91
16.22
9.07
3.18
-0.20
-0.73
0.87
3.10
4.14
2.09
-5.06
-19.13
-39.20
-62.21
-83.09
-97.06
-102.17
-99.43
-91.40
-80.69
-69.09
-57.36
-45.84
-35.01
-25.70
-18.94
-15.19
-13.96
-14.00
-13.73
-11.83
-7.97
-2.99
1.69
4.50
4.68
2.63
-0.36
-2.64
-2.93
-0.95
2.25
5.16
6.05
4.07
-0.49
-6.30
-11.78
-15.79
-18.08
-20.17
-23.02
-27.83
-35.44
-46.16
-59.78
-75.30
-90.43
-100.35
-101.32
-90.25
-67.01
-35.32
-1.66
27.11
46.37
55.32
56.49
53.58
49.92
46.93
44.47
41.97
39.48
37.56
36.87
37.84
39.26
39.98
39.19
36.82
33.18
29.73
27.44
26.53
26.57
27.05
27.21
27.02
27.06
28.07
30.47
33.84
37.14
39.23
39.31
37.48
34.74
32.47
31.91
33.96
38.83
45.99
53.81
59.43
59.38
50.97
33.85
10.95
-12.17
-29.52
-37.30
-35.58
-28.15
-20.43
-16.63
-17.89
-22.09
-25.50
-24.88
-19.02
-8.89
3.19
14.90
24.80
32.35
37.70
40.89
41.53
39.05
33.13
24.21
13.59
3.13
-5.67
-11.66
-14.81
-16.04
-16.75
-18.11
-20.70
-24.30
-28.10
-31.08
-32.38
-31.68
-29.29
-25.96
-22.67
-20.29
-19.30
-19.74
-21.20
-23.05
-24.66
-25.53
-25.38
-24.14
-21.96
-19.11
-15.96
-12.87
-10.11
-7.85
-6.19
-5.15
-4.75
-4.93
-5.61
-6.58
-7.56
-8.29
-8.59
-8.51
-8.21
-7.95
-7.91
-8.15
-8.62
-9.20
-9.74
-10.19
-10.55
-10.83
-11.05
-11.18
-11.10
-10.66
-9.70
-8.16
-6.09
-3.67
-1.16
1.21
3.27
4.95
6.23
7.14
7.69
7.93
7.94
7.82
7.70
7.65
7.69
7.79
7.89
7.99
8.11
8.27
8.45
8.57
8.54
8.28
7.78
7.09
6.31
5.51
4.73
4.00
3.31
2.63
1.92
1.17
0.39
-0.33
-0.92
-1.31
-1.53
-1.69
-1.95
-2.47
-3.25
-4.24
-5.26
-6.18
-6.91
-7.46
-7.85
-8.03
-7.90
-7.30
-6.14
-4.46
-2.44
-0.40
1.35
2.62
3.40
3.80
4.04
4.25
4.51
4.78
4.99
5.10
5.12
5.09
5.06
5.08
5.14
5.24
5.38
5.54
5.72
5.88
6.02
6.06
5.99
5.77
5.42
4.98
4.53
4.12
3.76
3.39
2.95
2.41
1.81
1.23
0.70
0.22
-0.26
-0.84
-1.55
-2.38
-3.26
-4.08
-4.77
-5.23
-5.39
-5.16
-4.51
-3.46
-2.16
-0.81
0.40
1.36
2.07
2.59
2.99
3.31
3.54
3.66
3.68
3.64
3.61
3.64
3.74
3.89
4.07
4.19
4.21
4.07
3.78
3.38
2.99
2.69
2.54
2.49
2.42
2.18
1.65
0.87
-0.04
-0.89
-1.53
-1.92
-2.15
-2.35
-2.62
-2.99
-3.45
-3.96
-4.54
-5.30
-6.29
-7.49
-8.71
-9.64
-9.99
-9.56
-8.38
-6.64
-4.65
-2.65
-0.80
0.85
2.25
3.31
3.94
4.09
3.86
3.47
3.21
3.29
3.74
4.44
5.14
5.64
5.86
5.85
5.69
5.47
5.21
4.89
4.53
4.16
3.86
3.69
3.60
3.50
3.26
2.82
2.21
1.55
0.97
0.52
0.18
-0.15
-0.60
-1.24
-2.06
-2.97
-3.85
-4.59
-5.14
-5.53
-5.87
-6.33
-7.05
-8.11
-9.47
-10.93
-12.24
-13.12
-13.36
-12.86
-11.66
-9.92
-7.83
-5.62
-3.45
-1.44
0.34
1.86
3.10
4.07
4.77
5.21
5.42
5.44
5.37
5.29
5.27
5.35
5.52
5.74
5.95
6.12
6.24
6.31
6.34
6.30
6.16
5.91
5.55
5.14
4.71
4.28
3.84
3.34
2.77
2.18
1.61
1.16
0.84
0.60
0.34
-0.04
-0.59
-1.29
-2.06
-2.80
-3.49
-4.13
-4.75
-5.37
-5.99
-6.61
-7.26
-7.98
-8.76
-9.53
-10.09
-10.24
-9.80
-8.73
-7.13
-5.20
-3.17
-1.20
0.64
2.31
3.75
4.92
5.74
6.18
6.30
6.21
6.05
5.94
5.94
6.07
6.29
6.56
6.83
7.04
7.13
7.06
6.84
6.52
6.20
5.93
5.73
5.57
5.38
5.11
4.71
4.20
3.61
3.00
2.43
1.98
1.71
1.60
1.57
1.46
1.13
0.54
-0.23
-1.02
-1.67
-2.12
-2.45
-2.78
-3.18
-3.65
-4.12
-4.53
-4.89
-5.28
-5.76
-6.35
-7.03
-7.76
-8.50
-9.31
-10.23
-11.23
-12.16
-12.79
-12.85
-12.16
-10.69
-8.62
-6.20
-3.75
-1.49
0.42
1.94
3.06
3.83
4.30
4.54
4.63
4.70
4.82
5.06
5.39
5.78
6.14
6.44
6.67
6.82
6.93
7.00
7.03
7.02
6.95
6.82
6.60
6.27
5.81
5.24
4.59
3.97
3.47
3.15
3.01
2.96
2.90
2.73
2.39
1.91
1.36
0.82
0.36
-0.00
-0.29
-0.56
-0.89
-1.33
-1.91
-2.57
-3.21
-3.72
-4.05
-4.22
-4.32
-4.46
-4.70
-5.06
-5.48
-5.94
-6.44
-7.02
-7.74
-8.60
-9.54
-10.41
-11.01
-11.19
-10.84
-9.95
-8.59
-6.94
-5.19
-3.50
-1.96
-0.57
0.69
1.86
2.91
3.81
4.49
4.95
5.25
5.45
5.62
5.78
5.95
6.16
6.40
6.66
6.86
6.92
6.78
6.44
5.98
5.51
5.12
4.83
4.61
4.37
4.09
3.76
3.40
3.04
2.65
2.20
1.67
1.05
0.41
-0.20
-0.69
-1.02
-1.24
-1.40
-1.58
-1.86
-2.28
-2.82
-3.44
-4.11
-4.79
-5.47
-6.15
-6.85
-7.58
-8.31
-8.99
-9.51
-9.76
-9.58
-8.87
-7.61
-5.87
-3.84
-1.74
0.21
1.85
3.13
4.11
4.83
5.35
5.65
5.72
5.56
5.23
4.88
4.62
4.54
4.63
4.80
4.92
4.95
4.85
4.69
4.54
4.45
4.41
4.36
4.20
3.85
3.26
2.51
1.71
1.01
0.53
0.30
0.26
0.27
0.21
-0.02
-0.44
-1.01
-1.66
-2.31
-2.91
-3.45
-3.94
-4.43
-4.98
-5.64
-6.44
-7.35
-8.28
-9.12
-9.74
-10.07
-10.06
-9.67
-8.84
-7.54
-5.80
-3.75
-1.60
0.37
1.95
3.10
3.88
4.45
4.95
5.40
5.73
5.84
5.67
5.27
4.76
4.32
4.03
3.92
3.93
4.01
4.14
4.35
4.61
4.88
5.03
4.93
4.51
3.79
2.91
2.03
1.26
0.61
0.03
-0.58
-1.21
-1.84
-2.34
-2.68
-2.86
-2.98
-3.18
-3.55
-4.10
-4.77
-5.51
-6.25
-6.96
-7.57
-7.99
-8.10
-7.79
-6.99
-5.75
-4.17
-2.35
-0.41
1.55
3.38
4.92
6.02
6.60
6.72
6.53
6.22
5.92
5.68
5.51
5.42
5.43
5.53
5.71
5.89
6.03
6.09
6.13
6.16
6.20
6.17
6.00
5.65
5.20
4.78
4.51
4.42
4.42
4.41
4.31
4.14
3.97
3.85
3.73
3.54
3.23
2.89
2.69
2.81
3.26
3.83
4.14
3.85
2.79
1.07
-0.98
-2.94
-4.46
-5.39
-5.69
-5.48
-4.85
-3.93
-2.75
-1.38
0.15
1.79
3.48
5.12
6.61
7.81
8.60
8.84
8.47
7.52
6.13
4.62
3.41
2.92
3.49
5.26
8.17
11.98
16.33
20.79
24.91
28.26
30.47
31.25
30.45
28.04
24.13
18.90
12.64
5.72
-1.39
-8.12
-13.91
-18.33
-21.14
-22.34
-22.17
-20.96
-19.13
-17.14
-15.40
-14.27
-13.92
-14.31
-15.15
-16.04
-16.56
-16.46
-15.74
-14.62
-13.46
-12.61
-12.28
-12.52
-13.16
-13.95
-14.62
-14.98
-15.01
-14.80
-14.54
-14.39
-14.43
-14.63
-14.92
-15.22
-15.50
-15.77
-16.07
-16.42
-16.85
-17.37
-18.05
-18.98
-20.26
-21.95
-24.02
-26.30
-28.55
-30.54
-32.07
-33.05
-33.47
-33.39
-32.84
-31.82
-30.28
-28.22
-25.74
-23.08
-20.60
-18.61
-17.19
-16.12
-14.89
-12.92
-9.73
-5.13
0.66
7.03
13.20
18.39
22.08
24.24
25.33
26.13
27.47
29.90
33.52
38.00
42.73
47.12
50.73
53.37
54.98
55.59
55.23
53.90
51.64
48.44
44.36
39.51
34.15
28.71
23.73
19.78
17.20
15.99
15.77
15.86
15.56
14.27
11.64
7.54
2.05
-4.60
-12.01
-19.67
-26.97
-33.38
-38.66
-42.88
-46.35
-49.40
-52.06
-54.03
-54.73
-53.64
-50.60
-45.89
-40.17
-34.20
-28.61
-23.70
-19.49
-15.87
-12.70
-9.86
-7.28
-4.91
-2.70
-0.65
1.13
2.50
3.31
3.51
3.19
2.56
1.84
1.20
0.74
0.43
0.26
0.21
0.32
0.63
1.11
1.68
2.17
2.37
2.16
1.48
0.42
-0.91
-2.36
-3.79
-5.05
-5.95
-6.30
-5.96
-4.97
-3.53
-1.98
-0.66
0.26
0.83
1.29
1.89
2.76
3.88
5.14
6.41
7.66
8.94
10.31
11.74
13.11
14.21
14.93
15.22
15.21
15.04
14.83
14.64
14.43
14.12
13.65
12.97
12.07
11.01
9.91
8.88
8.01
7.32
6.76
6.21
5.57
4.75
3.80
2.80
1.87
1.08
0.42
-0.24
-1.13
-2.60
-4.91
-8.15
-12.04
-16.04
-19.42
-21.59
-22.18
-21.18
-18.73
-14.99
-10.08
-4.02
3.07
10.87
18.83
26.27
32.54
37.14
39.76
40.38
39.14
36.36
32.49
28.02
23.46
19.24
15.66
12.89
10.95
9.71
8.93
8.37
7.84
7.25
6.60
5.92
5.22
4.46
3.61
2.69
1.81
1.15
0.83
0.89
1.17
1.45
1.52
1.27
0.79
0.24
-0.22
-0.55
-0.82
-1.21
-1.85
-2.74
-3.78
-4.76
-5.52
-6.04
-6.40
-6.79
-7.38
-8.18
-9.10
-9.91
-10.37
-10.33
-9.75
-8.71
-7.34
-5.80
-4.18
-2.54
-0.93
0.60
1.96
3.06
3.82
4.21
4.24
3.97
3.53
3.07
2.73
2.64
2.81
3.14
3.48
3.65
3.56
3.28
3.00
2.90
3.07
3.43
3.81
4.04
4.03
3.86
3.64
3.45
3.28
3.04
2.64
2.09
1.51
1.03
0.74
0.57
0.39
0.05
-0.49
-1.14
-1.72
-2.08
-2.18
-2.12
-2.03
-2.05
-2.18
-2.31
-2.34
-2.27
-2.20
-2.31
-2.70
-3.38
-4.20
-4.98
-5.59
-6.03
-6.37
-6.66
-6.87
-6.89
-6.58
-5.85
-4.79
-3.55
-2.28
-1.10
-0.03
0.94
1.81
2.55
3.11
3.51
3.80
4.06
4.34
4.61
4.76
4.68
4.30
3.67
2.94
2.28
1.85
1.70
1.80
2.04
2.29
2.42
2.35
2.04
1.53
0.92
0.36
0.00
-0.06
0.14
0.46
0.69
0.66
0.33
-0.19
-0.73
-1.17
-1.43
-1.59
-1.70
-1.80
-1.85
-1.79
-1.61
-1.39
-1.29
-1.47
-1.96
-2.67
-3.41
-3.98
-4.22
-4.06
-3.50
-2.61
-1.51
-0.29
0.93
2.08
3.06
3.84
4.38
4.68
4.75
4.60
4.27
3.84
3.39
3.02
2.77
2.66
2.63
2.65
2.68
2.69
2.69
2.64
2.45
2.05
1.34
0.35
-0.86
-2.14
-3.38
-4.47
-5.39
-6.14
-6.77
-7.27
-7.65
-7.87
-7.91
-7.75
-7.41
-6.95
-6.42
-5.86
-5.19
-4.33
-3.22
-1.90
-0.53
0.63
1.37
1.61
1.43
1.02
0.54
0.04
-0.53
-1.29
-2.26
-3.37
-4.50
-5.48
-6.21
-6.69
-6.91
-6.91
-6.66
-6.14
-5.40
-4.53
-3.68
-2.98
-2.47
-2.07
-1.64
-1.09
-0.39
0.38
1.14
1.80
2.32
2.71
2.98
3.13
3.16
3.10
3.04
3.10
3.40
3.95
4.69
5.44
5.98
6.20
6.06
5.65
5.11
4.58
4.10
3.68
3.28
2.88
2.49
2.15
1.87
1.66
1.50
1.33
1.12
0.82
0.45
0.04
-0.33
-0.60
-0.77
-0.88
-1.06
-1.39
-1.91
-2.56
-3.18
-3.65
-3.90
-3.98
-4.01
-4.16
-4.51
-5.07
-5.75
-6.39
-6.79
-6.77
-6.21
-5.12
-3.62
-1.92
-0.25
1.21
2.40
3.28
3.92
4.33
4.57
4.66
4.65
4.59
4.57
4.63
4.73
4.84
4.90
4.85
4.71
4.50
4.24
3.94
3.57
3.14
2.64
2.14
1.70
1.39
1.23
1.22
1.31
1.48
1.71
2.00
2.30
2.53
2.54
2.23
1.56
0.60
-0.49
-1.53
-2.32
-2.81
-2.99
-2.95
-2.84
-2.79
-2.87
-3.11
-3.45
-3.83
-4.16
-4.43
-4.65
-4.87
-5.14
-5.48
-5.85
-6.17
-6.31
-6.13
-5.52
-4.45
-3.01
-1.34
0.31
1.76
2.87
3.65
4.17
4.56
4.91
5.23
5.47
5.53
5.38
5.03
4.59
4.19
3.96
3.95
4.13
4.34
4.46
4.38
4.11
3.75
3.38
3.12
3.05
3.12
3.22
3.14
2.76
2.11
1.42
1.02
1.21
2.06
3.31
4.41
4.79
4.20
2.89
1.53
0.89
1.52
3.53
6.43
9.15
10.55
10.04
7.87
5.10
3.07
2.97
5.45
10.03
15.06
18.51
19.11
17.07
13.91
11.56
11.58
14.84
20.78
27.64
33.35
36.47
36.06
31.20
21.26
7.19
-6.93
-15.09
-12.18
3.05
26.75
51.03
67.09
69.25
53.58
23.72
-10.09
-37.27
-53.52
-60.91
-63.14
-61.72
-56.53
-46.35
-31.40
-14.51
-0.07
8.08
8.84
4.11
-2.97
-8.97
-11.68
-10.44
-6.32
-1.68
1.12
0.95
-1.72
-5.41
-8.55
-10.07
-9.52
-7.18
-4.01
-1.18
0.60
1.23
1.03
0.45
-0.15
-0.54
-0.64
-0.65
-0.90
-1.56
-2.62
-3.93
-5.32
-6.67
-7.92
-9.00
-9.85
-10.33
-10.15
-8.85
-5.94
-1.09
5.56
13.24
20.50
25.49
26.48
22.41
13.26
0.16
-14.95
-29.88
-42.73
-52.30
-58.21
-60.93
-61.58
-61.71
-62.80
-65.69
-70.04
-73.99
-74.56
-68.59
-54.20
-31.86
-4.69
22.45
44.65
58.54
63.20
59.96
51.42
40.35
28.97
18.85
11.06
6.39
5.18
7.13
11.09
15.37
18.23
18.51
15.96
11.23
5.54
0.22
-3.65
-5.47
-5.14
-3.08
-0.10
2.72
4.34
4.05
1.75
-1.97
-6.09
-9.49
-11.42
-11.75
-10.99
-10.02
-9.78
-10.86
-13.32
-16.54
-19.44
-20.81
-19.76
-16.12
-10.61
-4.60
0.39
3.21
3.50
1.63
-1.58
-5.25
-8.66
-11.33
-12.99
-13.50
-12.88
-11.32
-9.14
-6.63
-3.92
-0.97
2.33
6.03
9.94
13.60
16.45
17.96
17.83
16.04
12.88
8.93
5.03
2.14
1.11
2.34
5.59
9.98
14.30
17.32
18.21
16.64
12.75
6.99
-0.04
-7.69
-15.30
-22.21
-27.88
-31.95
-34.34
-35.23
-34.95
-33.91
-32.46
-30.85
-29.20
-27.46
-25.46
-22.92
-19.57
-15.28
-10.20
-4.70
0.76
5.78
10.23
14.21
17.87
21.22
24.06
26.07
27.06
27.15
26.80
26.58
26.89
27.74
28.73
29.30
28.97
27.55
25.22
22.36
19.47
16.97
15.12
13.96
13.28
12.73
11.89
10.49
8.48
6.04
3.55
1.35
-0.30
-1.32
-1.78
-1.81
-1.56
-1.18
-0.77
-0.43
-0.20
-0.00
0.32
0.98
2.11
3.73
5.66
7.63
9.34
10.55
11.18
11.28
10.99
10.48
9.93
9.51
9.34
9.55
10.20
11.30
12.78
14.51
16.34
18.17
19.90
21.48
22.84
23.86
24.39
24.26
23.31
21.52
18.96
15.86
12.52
9.25
6.27
3.69
1.45
-0.57
-2.51
-4.44
-6.39
-8.38
-10.47
-12.71
-15.01
-17.15
-18.71
-19.34
-18.91
-17.65
-16.11
-14.92
-14.46
-14.69
-15.13
-15.14
-14.23
-12.28
-9.58
-6.65
-3.93
-1.57
0.58
2.86
5.57
8.78
12.21
15.27
17.28
17.75
16.61
14.31
11.65
9.51
8.46
8.54
9.22
9.40
7.63
2.44
-7.33
-21.98
-40.49
-60.36
-77.91
-89.38
-92.15
-85.78
-72.17
-54.83
-37.44
-22.59
-11.24
-2.98
3.16
7.93
11.53
13.80
14.71
14.64
14.35
14.58
15.63
17.19
18.53
18.92
18.00
15.94
13.41
11.19
9.79
9.30
9.38
9.48
9.13
8.17
6.78
5.33
4.19
3.57
3.43
3.58
3.78
3.90
3.94
4.03
4.33
4.91
5.75
6.75
7.71
8.44
8.81
8.72
8.21
7.38
6.42
5.50
4.78
4.32
4.08
3.98
3.94
3.89
3.84
3.78
3.73
3.67
3.54
3.29
2.89
2.39
1.86
1.43
1.17
1.11
1.17
1.25
1.21
1.02
0.66
0.20
-0.29
-0.77
-1.20
-1.56
-1.83
-2.00
-2.10
-2.19
-2.37
-2.72
-3.24
-3.90
-4.64
-5.40
-6.12
-6.79
-7.42
-8.02
-8.59
-9.09
-9.45
-9.57
-9.33
-8.68
-7.64
-6.32
-4.87
-3.47
-2.26
-1.32
-0.67
-0.23
0.06
0.32
0.63
1.00
1.38
1.65
1.72
1.58
1.29
0.97
0.72
0.58
0.47
0.29
-0.03
-0.48
-0.92
-1.19
-1.19
-0.93
-0.52
-0.14
0.12
0.23
0.23
0.20
0.17
0.11
-0.01
-0.21
-0.48
-0.77
-1.03
-1.26
-1.49
-1.79
-2.22
-2.81
-3.53
-4.33
-5.10
-5.75
-6.23
-6.59
-6.90
-7.28
-7.81
-8.50
-9.29
-10.04
-10.58
-10.68
-10.15
-8.87
-6.86
-4.30
-1.53
1.06
3.15
4.61
5.47
5.91
6.11
6.20
6.18
5.97
5.48
4.72
3.78
2.83
2.00
1.34
0.83
0.46
0.24
0.23
0.48
0.94
1.48
1.90
2.11
2.10
2.02
1.98
2.03
2.10
2.07
1.95
1.91
2.25
3.20
4.80
6.77
8.70
10.19
11.12
11.70
12.39
13.69
15.93
19.14
23.03
27.09
30.75
33.51
35.08
35.49
35.09
34.43
34.08
34.27
34.65
34.19
31.41
24.87
13.81
-1.46
-19.47
-37.86
-53.99
-65.58
-71.24
-70.63
-64.46
-54.19
-41.77
-29.29
-18.69
-11.46
-8.37
-9.30
-13.25
-18.62
-23.58
-26.59
-26.75
-23.93
-18.73
-12.17
-5.35
0.85
5.97
9.92
12.91
15.24
17.12
18.68
19.97
21.06
21.98
22.77
23.41
23.79
23.82
23.44
22.72
21.76
20.67
19.51
18.22
16.75
15.10
13.34
11.56
9.79
7.99
6.06
3.91
1.49
-1.14
-3.87
-6.58
-9.16
-11.54
-13.69
-15.57
-17.20
-18.64
-19.94
-21.12
-22.11
-22.81
-23.12
-22.97
-22.44
-21.72
-21.04
-20.62
-20.48
-20.52
-20.55
-20.47
-20.27
-20.03
-19.94
-20.21
-20.91
-21.90
-22.83
-23.29
-23.15
-22.44
-21.35
-20.34
-19.94
-20.44
-21.70
-23.19
-24.11
-23.94
-22.46
-19.71
-16.33
-13.13
-10.62
-8.77
-7.11
-5.20
-3.20
-1.78
-1.43
-2.64
-5.11
-7.85
-9.93
-11.67
-12.22
-13.08
-16.93
-24.87
-36.21
-48.92
-61.32
-72.73
-82.62
-89.07
-88.01
-77.62
-54.10
-17.75
26.79
72.24
111.71
141.41
157.36
161.13
158.07
153.42
148.33
140.59
127.04
106.32
80.08
52.21
27.41
8.67
-3.41
-10.88
-16.26
-21.11
-25.67
-28.74
-29.34
-27.13
-23.23
-19.41
-17.47
-18.06
-20.53
-23.45
-25.31
-25.36
-23.43
-20.15
-16.50
-13.41
-11.26
-9.79
-8.31
-6.12
-2.98
0.96
5.15
8.88
11.57
13.05
13.55
13.48
13.20
12.78
12.11
10.98
9.24
6.91
4.23
1.51
-1.00
-3.17
-5.02
-6.62
-7.97
-9.01
-9.64
-9.73
-9.17
-7.94
-6.12
-3.87
-1.52
0.57
2.05
2.70
2.55
1.88
1.10
0.56
0.38
0.40
0.30
-0.24
-1.33
-2.86
-4.52
-6.00
-7.15
-8.02
-8.72
-9.34
-9.83
-10.00
-9.64
-8.65
-7.07
-5.08
-2.88
-0.60
1.70
4.03
6.38
8.64
10.68
12.30
13.39
13.93
13.95
13.58
12.88
11.95
10.86
9.73
8.69
7.85
7.26
6.85
6.55
6.26
5.95
5.63
5.32
5.02
4.65
4.17
3.54
2.84
2.19
1.70
1.42
1.25
1.06
0.69
0.06
-0.80
-1.76
-2.67
-3.42
-4.00
-4.49
-4.97
-5.52
-6.12
-6.71
-7.19
-7.48
-7.56
-7.38
-6.89
-6.01
-4.70
-3.01
-1.09
0.86
2.64
4.10
5.25
6.11
6.78
7.27
7.55
7.53
7.16
6.44
5.52
4.60
3.91
3.59
3.62
3.85
4.06
4.09
3.86
3.48
3.09
2.83
2.74
2.76
2.80
2.77
2.68
2.58
2.50
2.44
2.32
2.05
1.54
0.78
-0.15
-1.13
-2.05
-2.83
-3.46
-3.97
-4.41
-4.84
-5.30
-5.82
-6.41
-7.00
-7.45
-7.62
-7.35
-6.60
-5.45
-4.06
-2.62
-1.24
-0.00
1.09
2.05
2.82
3.40
3.77
3.95
3.98
3.86
3.58
3.14
2.59
2.04
1.61
1.38
1.35
1.45
1.57
1.65
1.68
1.66
1.60
1.45
1.18
0.80
0.35
-0.11
-0.51
-0.84
-1.12
-1.40
-1.67
-1.92
-2.12
-2.24
-2.31
-2.39
-2.56
-2.89
-3.39
-4.04
-4.75
-5.41
-5.92
-6.17
-6.09
-5.62
-4.78
-3.61
-2.21
-0.73
0.69
1.89
2.76
3.27
3.41
3.26
2.93
2.53
2.15
1.84
1.58
1.36
1.16
0.97
0.82
0.71
0.62
0.50
0.30
-0.00
-0.35
-0.67
-0.89
-1.00
-1.07
-1.20
-1.44
-1.80
-2.17
-2.45
-2.57
-2.53
-2.45
-2.49
-2.74
-3.19
-3.76
-4.33
-4.81
-5.14
-5.30
-5.26
-5.03
-4.63
-4.08
-3.45
-2.78
-2.06
-1.25
-0.35
0.63
1.61
2.42
2.95
3.10
2.88
2.34
1.65
0.95
0.40
0.12
0.14
0.44
0.96
1.59
2.18
2.61
2.72
2.46
1.82
0.95
0.01
-0.84
-1.56
-2.21
-2.89
-3.66
-4.44
-5.09
-5.46
-5.47
-5.18
-4.73
-4.27
-3.89
-3.60
-3.39
-3.24
-3.19
-3.28
-3.51
-3.78
-3.93
-3.78
-3.21
-2.22
-0.97
0.33
1.47
2.32
2.83
3.03
2.95
2.64
2.13
1.48
0.83
0.31
0.06
0.14
0.47
0.85
1.09
1.04
0.75
0.36
0.08
0.06
0.27
0.61
0.90
0.99
0.85
0.52
0.09
-0.35
-0.73
-1.03
-1.23
-1.38
-1.51
-1.72
-2.07
-2.60
-3.25
-3.91
-4.40
-4.56
-4.30
-3.64
-2.67
-1.55
-0.43
0.53
1.25
1.69
1.86
1.84
1.69
1.48
1.27
1.07
0.90
0.76
0.66
0.63
0.67
0.78
0.93
1.08
1.19
1.25
1.28
1.32
1.42
1.59
1.78
1.92
1.90
1.66
1.22
0.64
0.01
-0.57
-1.07
-1.47
-1.80
-2.10
-2.44
-2.85
-3.34
-3.86
-4.25
-4.36
-4.08
-3.40
-2.45
-1.43
-0.50
0.25
0.86
1.43
2.00
2.54
2.89
2.91
2.54
1.86
1.09
0.48
0.24
0.42
0.95
1.68
2.46
3.16
3.74
4.21
4.55
4.74
4.74
4.51
4.07
3.45
2.74
2.07
1.52
1.16
0.97
0.86
0.73
0.47
-0.03
-0.75
-1.62
-2.51
-3.23
-3.63
-3.67
-3.37
-2.82
-2.12
-1.31
-0.40
0.65
1.82
3.02
4.08
4.79
5.06
4.89
4.44
3.94
3.55
3.36
3.34
3.39
3.42
3.38
3.30
3.23
3.22
3.31
3.48
3.73
4.04
4.39
4.71
4.93
4.91
4.57
3.91
3.01
2.04
1.15
0.42
-0.14
-0.58
-0.99
-1.41
-1.86
-2.36
-2.90
-3.40
-3.78
-3.87
-3.54
-2.72
-1.48
-0.02
1.39
2.53
3.25
3.57
3.59
3.43
3.20
2.93
2.64
2.31
1.95
1.62
1.36
1.20
1.11
1.06
1.01
0.94
0.88
0.84
0.86
0.93
1.04
1.17
1.28
1.32
1.23
0.95
0.49
-0.10
-0.72
-1.27
-1.69
-1.99
-2.23
-2.46
-2.72
-3.02
-3.33
-3.65
-3.92
-4.09
-4.07
-3.73
-3.03
-1.98
-0.70
0.60
1.73
2.53
2.94
2.99
2.80
2.48
2.15
1.86
1.62
1.42
1.22
1.00
0.76
0.48
0.16
-0.15
-0.43
-0.59
-0.56
-0.30
0.13
0.61
0.96
1.08
0.93
0.59
0.18
-0.18
-0.46
-0.67
-0.86
-1.09
-1.35
-1.66
-2.04
-2.46
-2.90
-3.29
-3.53
-3.56
-3.33
-2.89
-2.29
-1.59
-0.83
-0.02
0.81
1.60
2.26
2.69
2.82
2.65
2.24
1.71
1.17
0.72
0.44
0.37
0.50
0.75
1.00
1.10
0.93
0.46
-0.24
-1.01
-1.64
-1.98
-1.96
-1.66
-1.25
-0.97
-1.00
-1.37
-1.98
-2.63
-3.14
-3.38
-3.36
-3.22
-3.12
-3.15
-3.33
-3.58
-3.79
-3.88
-3.79
-3.54
-3.10
-2.47
-1.67
-0.74
0.27
1.25
2.10
2.76
3.20
3.43
3.48
3.39
3.20
2.95
2.65
2.30
1.91
1.48
1.04
0.64
0.37
0.26
0.34
0.54
0.76
0.86
0.75
0.42
-0.04
-0.50
-0.83
-0.92
-0.78
-0.51
-0.22
-0.04
-0.00
-0.11
-0.33
-0.64
-1.02
-1.47
-1.93
-2.30
-2.50
-2.45
-2.15
-1.64
-1.01
-0.34
0.32
0.92
1.41
1.75
1.93
1.96
1.87
1.73
1.58
1.48
1.46
1.54
1.68
1.85
1.94
1.91
1.73
1.50
1.33
1.32
1.49
1.72
1.88
1.86
1.66
1.32
0.92
0.52
0.12
-0.26
-0.63
-1.01
-1.39
-1.80
-2.28
-2.83
-3.42
-3.98
-4.41
-4.67
-4.75
-4.70
-4.53
-4.27
-3.91
-3.46
-2.95
-2.42
-1.95
-1.57
-1.34
-1.27
-1.37
-1.59
-1.84
-2.04
-2.13
-2.13
-2.12
-2.11
-2.06
-1.84
-1.34
-0.53
0.49
1.49
2.23
2.59
2.60
2.42
2.26
2.26
2.40
2.60
2.70
2.58
2.23
1.72
1.15
0.63
0.16
-0.26
-0.69
-1.14
-1.54
-1.81
-1.85
-1.64
-1.21
-0.61
0.07
0.78
1.47
2.09
2.60
2.96
3.15
3.17
3.04
2.78
2.43
2.08
1.79
1.65
1.69
1.88
2.14
2.37
2.51
2.52
2.42
2.24
2.01
1.73
1.38
0.97
0.51
0.07
-0.28
-0.49
-0.61
-0.76
-1.06
-1.58
-2.29
-3.07
-3.75
-4.28
-4.67
-5.04
-5.46
-5.91
-6.29
-6.45
-6.30
-5.86
-5.20
-4.39
-3.51
-2.58
-1.65
-0.79
-0.09
0.41
0.72
0.89
1.02
1.18
1.43
1.77
2.22
2.79
3.43
4.10
4.69
5.13
5.40
5.49
5.48
5.42
5.36
5.29
5.15
4.86
4.35
3.62
2.73
1.85
1.16
0.82
0.86
1.17
1.55
1.74
1.57
1.03
0.25
-0.56
-1.23
-1.68
-1.94
-2.14
-2.37
-2.61
-2.81
-2.84
-2.62
-2.15
-1.53
-0.89
-0.38
-0.09
-0.06
-0.25
-0.57
-0.93
-1.26
-1.52
-1.73
-1.88
-1.96
-1.93
-1.76
-1.41
-0.90
-0.28
0.40
1.07
1.71
2.29
2.80
3.21
3.52
3.70
3.78
3.77
3.69
3.53
3.30
3.00
2.66
2.32
2.00
1.67
1.24
0.60
-0.32
-1.48
-2.76
-3.92
-4.75
-5.11
-5.02
-4.56
-3.92
-3.26
-2.67
-2.20
-1.85
-1.59
-1.39
-1.23
-1.05
-0.76
-0.34
0.23
0.89
1.54
2.12
2.57
2.93
3.26
3.60
3.91
4.14
4.20
4.08
3.81
3.48
3.16
2.87
2.62
2.38
2.12
1.84
1.54
1.20
0.81
0.41
0.00
-0.37
-0.70
-1.03
-1.40
-1.84
-2.35
-2.86
-3.35
-3.83
-4.35
-4.94
-5.56
-6.12
-6.44
-6.41
-6.00
-5.31
-4.47
-3.61
-2.80
-2.05
-1.34
-0.67
-0.02
0.61
1.20
1.74
2.19
2.56
2.82
3.02
3.18
3.34
3.47
3.58
3.60
3.54
3.41
3.22
3.02
2.82
2.61
2.36
2.06
1.68
1.27
0.84
0.43
0.06
-0.29
-0.67
-1.12
-1.65
-2.22
-2.76
-3.20
-3.49
-3.72
-3.97
-4.37
-4.94
-5.60
-6.16
-6.46
-6.37
-5.91
-5.21
-4.44
-3.79
-3.31
-3.01
-2.74
-2.32
-1.55
-0.32
1.43
3.62
6.08
8.60
10.89
12.66
13.71
13.93
13.44
12.44
11.18
9.79
8.26
6.39
4.00
0.98
-2.53
-6.20
-9.57
-12.23
-13.86
-14.39
-13.97
-12.95
-11.83
-11.07
-10.97
-11.49
-12.23
-12.52
-11.67
-9.22
-5.16
-0.01
5.40
10.16
13.68
15.86
17.02
17.75
18.55
19.64
20.92
22.09
22.84
22.98
22.49
21.45
19.95
18.10
16.03
13.89
11.90
10.25
9.04
8.25
7.75
7.37
6.93
6.31
5.44
4.34
3.05
1.63
0.13
-1.43
-2.98
-4.48
-5.90
-7.22
-8.50
-9.79
-11.13
-12.50
-13.80
-14.90
-15.62
-15.89
-15.79
-15.51
-15.30
-15.33
-15.59
-15.90
-15.96
-15.55
-14.63
-13.32
-11.86
-10.46
-9.19
-7.98
-6.73
-5.37
-3.94
-2.56
-1.33
-0.31
0.53
1.25
1.88
2.44
2.95
3.50
4.17
5.06
6.17
7.34
8.35
9.05
9.38
9.48
9.58
9.91
10.61
11.65
12.94
14.35
15.75
17.01
18.08
18.87
19.36
19.56
19.52
19.26
18.81
18.18
17.37
16.44
15.42
14.36
13.28
12.16
11.10
10.21
9.71
9.80
10.56
11.87
13.46
14.95
15.94
16.18
15.53
14.05
11.95
9.53
7.09
4.90
3.08
1.59
0.40
-0.52
-1.16
-1.48
-1.62
-1.88
-2.75
-4.66
-7.86
-12.19
-17.21
-22.31
-26.96
-30.81
-33.69
-35.59
-36.55
-36.67
-36.13
-35.25
-34.37
-33.79
-33.63
-33.78
-33.94
-33.82
-33.25
-32.27
-31.08
-29.87
-28.77
-27.73
-26.61
-25.31
-23.80
-22.13
-20.33
-18.41
-16.34
-14.12
-11.87
-9.78
-8.07
-6.85
-6.06
-5.51
-4.95
-4.20
-3.21
-2.04
-0.83
0.27
1.13
1.64
1.79
1.59
1.18
0.74
0.52
0.71
1.34
2.34
3.53
4.75
5.90
6.96
7.96
8.85
9.56
9.97
10.00
9.65
9.04
8.28
7.48
6.69
5.96
5.33
4.83
4.49
4.25
3.97
3.51
2.83
1.96
1.02
0.17
-0.49
-0.93
-1.14
-1.11
-0.84
-0.30
0.48
1.42
2.40
3.32
4.12
4.76
5.28
5.70
6.02
6.25
6.37
6.43
6.44
6.43
6.39
6.28
6.03
5.61
5.05
4.46
3.94
3.54
3.26
3.02
2.74
2.39
2.00
1.66
1.47
1.47
1.60
1.77
1.87
1.85
1.74
1.63
1.63
1.78
2.09
2.49
2.90
3.25
3.48
3.57
3.50
3.26
2.89
2.44
2.01
1.70
1.58
1.62
1.71
1.71
1.48
1.00
0.35
-0.34
-0.89
-1.18
-1.17
-0.95
-0.68
-0.51
-0.54
-0.69
-0.82
-0.74
-0.34
0.40
1.32
2.25
2.99
3.46
3.65
3.63
3.51
3.32
3.10
2.84
2.52
2.17
1.83
1.57
1.40
1.34
1.35
1.36
1.36
1.34
1.34
1.37
1.42
1.46
1.44
1.39
1.36
1.45
1.65
1.90
2.05
1.94
1.53
0.91
0.28
-0.17
-0.33
-0.24
-0.01
0.22
0.34
0.28
0.06
-0.33
-0.84
-1.39
-1.88
-2.20
-2.27
-2.08
-1.73
-1.32
-0.98
-0.75
-0.62
-0.54
-0.44
-0.30
-0.12
0.08
0.28
0.46
0.60
0.73
0.83
0.95
1.11
1.34
1.67
2.11
2.62
3.15
3.62
3.91
3.94
3.68
3.19
2.58
1.99
1.53
1.23
1.07
1.00
0.96
0.93
0.91
0.88
0.85
0.82
0.81
0.83
0.88
0.92
0.87
0.68
0.33
-0.12
-0.57
-0.93
-1.12
-1.16
-1.11
-1.03
-1.01
-1.08
-1.25
-1.48
-1.73
-1.93
-2.03
-2.01
-1.87
-1.67
-1.48
-1.42
-1.54
-1.83
-2.21
-2.60
-2.89
-3.08
-3.17
-3.15
-3.02
-2.74
-2.32
-1.87
-1.55
-1.51
-1.74
-2.09
-2.21
-1.83
-0.83
0.59
2.00
2.91
3.03
2.39
1.33
0.33
-0.18
-0.06
0.56
1.35
1.96
2.21
2.12
1.85
1.61
1.49
1.49
1.52
1.50
1.43
1.38
1.44
1.67
2.02
2.37
2.61
2.67
2.57
2.41
2.26
2.17
2.10
2.01
1.87
1.73
1.63
1.59
1.58
1.58
1.53
1.44
1.31
1.15
0.97
0.76
0.52
0.31
0.18
0.19
0.32
0.50
0.61
0.55
0.29
-0.13
-0.62
-1.07
-1.42
-1.63
-1.67
-1.50
-1.11
-0.55
0.08
0.64
0.95
0.95
0.65
0.20
-0.18
-0.33
-0.20
0.11
0.41
0.54
0.45
0.21
-0.02
-0.08
0.13
0.57
1.16
1.77
2.33
2.81
3.24
3.65
4.08
4.48
4.76
4.74
4.33
3.48
2.29
0.96
-0.27
-1.20
-1.79
-2.12
-2.31
-2.51
-2.73
-2.92
-3.01
-2.94
-2.73
-2.47
-2.25
-2.13
-2.10
-2.10
-2.06
-1.93
-1.74
-1.55
-1.36
-1.16
-0.90
-0.57
-0.23
0.00
0.07
-0.03
-0.16
-0.18
0.03
0.43
0.88
1.18
1.20
0.94
0.51
0.06
-0.34
-0.68
-1.05
-1.54
-2.14
-2.78
-3.32
-3.60
-3.51
-3.06
-2.39
-1.71
-1.25
-1.12
-1.28
-1.58
-1.79
-1.71
-1.26
-0.52
0.37
1.22
1.88
2.26
2.34
2.14
1.74
1.29
0.95
0.90
1.22
1.91
2.85
3.86
4.74
5.30
5.39
4.90
3.83
2.33
0.67
-0.81
-1.83
-2.32
-2.39
-2.28
-2.19
-2.17
-2.14
-1.97
-1.61
-1.14
-0.70
-0.43
-0.38
-0.44
-0.50
-0.47
-0.33
-0.18
-0.12
-0.20
-0.41
-0.68
-0.90
-1.02
-1.02
-0.99
-1.03
-1.25
-1.68
-2.20
-2.67
-2.89
-2.81
-2.49
-2.14
-1.99
-2.18
-2.68
-3.29
-3.74
-3.86
-3.65
-3.24
-2.86
-2.63
-2.53
-2.39
-2.02
-1.28
-0.17
1.19
2.57
3.79
4.70
5.21
5.31
5.02
4.46
3.76
3.10
2.60
2.33
2.25
2.31
2.43
2.54
2.60
2.58
2.42
2.10
1.65
1.15
0.71
0.43
0.32
0.29
0.22
0.01
-0.35
-0.79
-1.18
-1.42
-1.49
-1.42
-1.27
-1.09
-0.88
-0.59
-0.22
0.22
0.71
1.21
1.69
2.11
2.41
2.51
2.33
1.87
1.23
0.55
-0.01
-0.35
-0.46
-0.39
-0.21
0.05
0.36
0.72
1.08
1.38
1.58
1.64
1.54
1.28
0.85
0.25
-0.44
-1.09
-1.52
-1.58
-1.24
-0.66
-0.11
0.18
0.11
-0.22
-0.57
-0.71
-0.57
-0.25
0.05
0.17
0.10
-0.06
-0.18
-0.24
-0.32
-0.53
-0.92
-1.40
-1.80
-1.97
-1.87
-1.61
-1.33
-1.16
-1.15
-1.26
-1.43
-1.62
-1.78
-1.89
-1.91
-1.80
-1.56
-1.25
-0.99
-0.84
-0.82
-0.84
-0.77
-0.52
-0.07
0.49
1.03
1.39
1.51
1.43
1.27
1.16
1.21
1.45
1.83
2.23
2.54
2.67
2.57
2.28
1.85
1.37
0.93
0.60
0.39
0.33
0.40
0.58
0.84
1.10
1.26
1.27
1.09
0.80
0.52
0.39
0.48
0.76
1.09
1.30
1.24
0.89
0.32
-0.31
-0.82
-1.13
-1.19
-1.08
-0.87
-0.64
-0.45
-0.32
-0.29
-0.38
-0.60
-0.88
-1.10
-1.16
-1.02
-0.72
-0.40
-0.19
-0.14
-0.20
-0.25
-0.19
-0.01
0.23
0.41
0.47
0.42
0.33
0.28
0.31
0.42
0.55
0.67
0.76
0.82
0.85
0.83
0.73
0.52
0.22
-0.13
-0.49
-0.79
-0.97
-1.03
-0.97
-0.84
-0.69
-0.56
-0.48
-0.42
-0.36
-0.27
-0.20
-0.21
-0.38
-0.72
-1.14
-1.49
-1.60
-1.37
-0.83
-0.10
0.59
1.09
1.30
1.24
0.98
0.63
0.28
-0.05
-0.33
-0.55
-0.68
-0.73
-0.68
-0.54
-0.37
-0.20
-0.06
0.04
0.09
0.11
0.13
0.16
0.17
0.12
-0.04
-0.32
-0.66
-0.98
-1.21
-1.33
-1.38
-1.44
-1.57
-1.78
-2.02
-2.19
-2.23
-2.13
-1.96
-1.83
-1.82
-1.97
-2.23
-2.49
-2.64
-2.58
-2.27
-1.77
-1.19
-0.68
-0.35
-0.25
-0.37
-0.62
-0.91
-1.16
-1.33
-1.40
-1.40
-1.32
-1.11
-0.73
-0.15
0.60
1.44
2.23
2.86
3.25
3.40
3.35
3.18
2.95
2.69
2.44
2.20
1.98
1.77
1.57
1.35
1.13
0.92
0.73
0.53
0.27
-0.08
-0.49
-0.87
-1.08
-1.01
-0.65
-0.11
0.42
0.77
0.84
0.67
0.38
0.14
0.11
0.34
0.79
1.32
1.76
1.96
1.87
1.55
1.12
0.75
0.55
0.52
0.62
0.77
0.92
1.01
1.01
0.90
0.67
0.37
0.11
-0.05
-0.07
0.01
0.07
-0.01
-0.28
-0.68
-1.09
-1.34
-1.38
-1.25
-1.06
-0.94
-0.96
-1.10
-1.28
-1.42
-1.50
-1.52
-1.53
-1.53
-1.51
-1.40
-1.13
-0.70
-0.14
0.48
1.09
1.60
1.98
2.20
2.23
2.06
1.68
1.15
0.58
0.12
-0.09
-0.03
0.24
0.55
0.74
0.74
0.56
0.29
0.04
-0.14
-0.24
-0.32
-0.39
-0.44
-0.39
-0.21
0.08
0.35
0.43
0.18
-0.41
-1.18
-1.91
-2.38
-2.51
-2.34
-2.05
-1.80
-1.64
-1.57
-1.51
-1.42
-1.29
-1.13
-0.96
-0.73
-0.41
0.03
0.53
0.96
1.21
1.21
1.01
0.70
0.42
0.29
0.31
0.44
0.58
0.66
0.65
0.55
0.44
0.34
0.26
0.16
-0.00
-0.28
-0.65
-1.08
-1.48
-1.76
-1.89
-1.90
-1.85
-1.82
-1.88
-2.01
-2.17
-2.31
-2.41
-2.50
-2.61
-2.78
-2.97
-3.13
-3.21
-3.16
-3.01
-2.82
-2.65
-2.51
-2.35
-2.11
-1.69
-1.03
-0.11
0.99
2.14
3.15
3.87
4.20
4.18
3.98
3.78
3.68
3.68
3.67
3.50
3.11
2.55
1.93
1.41
1.05
0.87
0.83
0.88
0.98
1.10
1.19
1.22
1.13
0.93
0.64
0.32
0.03
-0.21
-0.38
-0.48
-0.52
-0.48
-0.41
-0.35
-0.34
-0.38
-0.48
-0.62
-0.80
-1.00
-1.17
-1.22
-1.02
-0.56
0.12
0.81
1.27
1.38
1.11
0.66
0.23
0.03
0.10
0.36
0.66
0.86
0.86
0.70
0.44
0.20
0.07
0.08
0.17
0.27
0.31
0.27
0.19
0.14
0.13
0.15
0.14
0.05
-0.12
-0.32
-0.47
-0.53
-0.50
-0.40
-0.30
-0.27
-0.38
-0.65
-1.09
-1.62
-2.11
-2.41
-2.38
-2.00
-1.37
-0.68
-0.15
0.10
0.09
-0.02
-0.01
0.20
0.59
0.99
1.23
1.22
1.00
0.68
0.39
0.17
-0.01
-0.16
-0.32
-0.44
-0.47
-0.39
-0.21
-0.01
0.16
0.26
0.27
0.19
0.06
-0.10
-0.26
-0.40
-0.49
-0.57
-0.66
-0.80
-0.97
-1.13
-1.25
-1.29
-1.29
-1.28
-1.31
-1.39
-1.53
-1.71
-1.91
-2.08
-2.17
-2.14
-1.93
-1.61
-1.25
-0.99
-0.95
-1.15
-1.51
-1.87
-2.06
-2.00
-1.71
-1.29
-0.84
-0.45
-0.13
0.15
0.46
0.79
1.12
1.40
1.61
1.75
1.87
1.98
2.09
2.14
2.07
1.89
1.62
1.32
1.03
0.75
0.46
0.12
-0.23
-0.53
-0.69
-0.62
-0.32
0.16
0.73
1.30
1.79
2.16
2.37
2.39
2.25
1.98
1.64
1.30
1.02
0.82
0.75
0.79
0.96
1.21
1.45
1.57
1.47
1.12
0.57
-0.02
-0.50
-0.74
-0.73
-0.50
-0.18
0.14
0.39
0.53
0.57
0.51
0.35
0.10
-0.24
-0.63
-1.00
-1.27
-1.38
-1.30
-1.07
-0.78
-0.49
-0.23
0.01
0.26
0.54
0.83
1.06
1.16
1.10
0.84
0.41
-0.11
-0.67
-1.21
-1.70
-2.12
-2.47
-2.68
-2.69
-2.46
-1.98
-1.33
-0.66
-0.07
0.39
0.73
1.03
1.32
1.60
1.83
1.93
1.88
1.71
1.49
1.29
1.15
1.07
1.03
0.98
0.92
0.84
0.72
0.56
0.35
0.06
-0.27
-0.62
-0.97
-1.31
-1.61
-1.87
-2.05
-2.13
-2.04
-1.78
-1.38
-0.96
-0.64
-0.49
-0.55
-0.75
-0.99
-1.14
-1.15
-1.05
-0.91
-0.83
-0.89
-1.05
-1.25
-1.40
-1.46
-1.42
-1.36
-1.35
-1.43
-1.60
-1.78
-1.91
-1.92
-1.81
-1.57
-1.26
-0.90
-0.56
-0.34
-0.28
-0.43
-0.74
-1.13
-1.50
-1.76
-1.90
-1.94
-1.91
-1.80
-1.55
-1.06
-0.34
0.51
1.31
1.93
2.27
2.43
2.54
2.68
2.84
2.89
2.68
2.18
1.52
0.92
0.58
0.60
0.87
1.20
1.37
1.32
1.12
0.92
0.88
1.04
1.36
1.73
2.05
2.25
2.36
2.38
2.33
2.16
1.82
1.31
0.65
-0.04
-0.65
-1.04
-1.16
-1.01
-0.66
-0.19
0.33
0.83
1.30
1.69
1.97
2.09
2.04
1.85
1.53
1.14
0.72
0.28
-0.15
-0.54
-0.83
-0.99
-1.04
-0.97
-0.83
-0.64
-0.42
-0.23
-0.15
-0.25
-0.58
-1.06
-1.55
-1.85
-1.85
-1.55
-1.12
-0.74
-0.57
-0.61
-0.75
-0.84
-0.75
-0.50
-0.14
0.23
0.57
0.88
1.19
1.51
1.80
2.01
2.12
2.16
2.20
2.30
2.50
2.72
2.86
2.79
2.45
1.83
1.01
0.09
-0.82
-1.64
-2.33
-2.87
-3.26
-3.52
-3.69
-3.81
-3.87
-3.86
-3.71
-3.37
-2.85
-2.24
-1.68
-1.30
-1.18
-1.29
-1.56
-1.89
-2.19
-2.42
-2.52
-2.44
-2.14
-1.62
-0.94
-0.19
0.54
1.20
1.74
2.16
2.44
2.56
2.54
2.43
2.32
2.28
2.38
2.59
2.82
2.94
2.87
2.57
2.11
1.60
1.15
0.81
0.56
0.34
0.09
-0.21
-0.50
-0.71
-0.78
-0.73
-0.61
-0.46
-0.31
-0.12
0.13
0.45
0.76
1.00
1.09
0.99
0.74
0.39
-0.01
-0.42
-0.79
-1.08
-1.21
-1.13
-0.84
-0.39
0.10
0.51
0.72
0.70
0.47
0.12
-0.29
-0.66
-0.97
-1.16
-1.22
-1.14
-0.94
-0.69
-0.49
-0.44
-0.54
-0.74
-0.88
-0.86
-0.64
-0.29
0.03
0.20
0.14
-0.07
-0.33
-0.49
-0.52
-0.42
-0.24
-0.06
0.11
0.25
0.35
0.42
0.43
0.35
0.19
-0.02
-0.22
-0.36
-0.41
-0.39
-0.37
-0.37
-0.43
-0.50
-0.52
-0.43
-0.24
-0.02
0.11
0.05
-0.22
-0.62
-1.01
-1.27
-1.33
-1.22
-1.00
-0.78
-0.62
-0.52
-0.48
-0.48
-0.49
-0.51
-0.53
-0.54
-0.53
-0.49
-0.42
-0.32
-0.18
-0.03
0.08
0.11
0.02
-0.19
-0.43
-0.63
-0.68
-0.59
-0.39
-0.17
-0.01
0.06
0.04
-0.04
-0.12
-0.17
-0.14
-0.00
0.21
0.44
0.59
0.61
0.48
0.22
-0.09
-0.42
-0.72
-0.98
-1.15
-1.17
-0.99
-0.60
-0.06
0.47
0.84
0.97
0.87
0.64
0.37
0.11
-0.17
-0.50
-0.87
-1.20
-1.35
-1.24
-0.90
-0.45
-0.11
-0.04
-0.28
-0.69
-1.07
-1.24
-1.15
-0.96
-0.88
-1.09
-1.60
-2.21
-2.65
-2.74
-2.44
-1.93
-1.47
-1.24
-1.25
-1.41
-1.57
-1.64
-1.62
-1.56
-1.48
-1.36
-1.09
-0.61
0.09
0.95
1.81
2.55
3.04
3.27
3.25
3.07
2.81
2.53
2.29
2.09
1.94
1.83
1.78
1.78
1.79
1.78
1.70
1.54
1.32
1.08
0.88
0.76
0.72
0.78
0.92
1.08
1.21
1.21
1.02
0.64
0.14
-0.36
-0.77
-1.04
-1.24
-1.45
-1.69
-1.91
-1.95
-1.66
-0.96
0.03
1.11
1.99
2.49
2.55
2.26
1.82
1.39
1.04
0.79
0.60
0.45
0.32
0.26
0.29
0.39
0.51
0.56
0.50
0.30
0.01
-0.26
-0.42
-0.45
-0.36
-0.26
-0.26
-0.37
-0.54
-0.65
-0.59
-0.35
-0.04
0.20
0.23
0.05
-0.26
-0.58
-0.81
-0.91
-0.90
-0.83
-0.71
-0.55
-0.32
-0.06
0.19
0.39
0.50
0.51
0.44
0.30
0.13
-0.01
-0.08
-0.04
0.07
0.19
0.22
0.13
-0.05
-0.20
-0.22
-0.09
0.13
0.25
0.14
-0.19
-0.63
-0.96
-1.07
-0.94
-0.73
-0.64
-0.76
-1.07
-1.39
-1.52
-1.35
-0.95
-0.47
-0.07
0.13
0.17
0.13
0.09
0.07
0.02
-0.14
-0.43
-0.77
-1.02
-1.05
-0.80
-0.35
0.13
0.48
0.61
0.58
0.51
0.54
0.72
0.95
1.10
1.08
0.86
0.55
0.31
0.29
0.51
0.89
1.26
1.44
1.35
1.01
0.57
0.20
0.02
0.09
0.37
0.75
1.14
1.46
1.69
1.82
1.89
1.92
1.88
1.78
1.61
1.42
1.24
1.12
1.07
1.08
1.08
1.04
0.94
0.81
0.72
0.66
0.61
0.52
0.34
0.11
-0.13
-0.29
-0.34
-0.31
-0.23
-0.16
-0.14
-0.18
-0.28
-0.44
-0.64
-0.87
-1.11
-1.29
-1.40
-1.37
-1.18
-0.81
-0.25
0.43
1.12
1.69
1.99
1.97
1.68
1.23
0.81
0.56
0.52
0.67
0.87
0.99
0.92
0.65
0.23
-0.19
-0.48
-0.56
-0.45
-0.23
-0.07
-0.08
-0.29
-0.65
-1.03
-1.33
-1.47
-1.45
-1.30
-1.08
-0.87
-0.71
-0.62
-0.57
-0.56
-0.53
-0.45
-0.26
0.03
0.39
0.76
1.04
1.12
0.94
0.50
-0.09
-0.67
-1.08
-1.21
-1.07
-0.79
-0.51
-0.35
-0.32
-0.34
-0.32
-0.20
0.02
0.25
0.37
0.27
-0.06
-0.60
-1.21
-1.79
-2.21
-2.43
-2.47
-2.38
-2.24
-2.11
-2.05
-2.10
-2.30
-2.61
-2.98
-3.28
-3.38
-3.23
-2.84
-2.29
-1.67
-1.04
-0.42
0.20
0.78
1.24
1.54
1.66
1.66
1.65
1.70
1.85
2.05
2.23
2.36
2.44
2.50
2.54
2.55
2.50
2.34
2.07
1.75
1.42
1.11
0.84
0.59
0.34
0.09
-0.14
-0.31
-0.40
-0.44
-0.52
-0.70
-0.98
-1.27
-1.40
-1.24
-0.76
-0.08
0.64
1.20
1.51
1.58
1.46
1.24
0.97
0.69
0.41
0.16
-0.04
-0.15
-0.12
0.03
0.29
0.60
0.89
1.09
1.16
1.09
0.93
0.70
0.45
0.20
-0.06
-0.28
-0.45
-0.54
-0.54
-0.48
-0.40
-0.34
-0.33
-0.37
-0.44
-0.48
-0.51
-0.52
-0.54
-0.58
-0.57
-0.42
-0.07
0.49
1.15
1.72
2.01
1.94
1.52
0.93
0.33
-0.11
-0.30
-0.27
-0.09
0.13
0.33
0.47
0.55
0.59
0.60
0.55
0.40
0.16
-0.12
-0.36
-0.46
-0.37
-0.19
-0.08
-0.19
-0.56
-1.09
-1.55
-1.76
-1.64
-1.30
-0.92
-0.66
-0.56
-0.54
-0.47
-0.25
0.08
0.45
0.75
0.94
1.06
1.13
1.17
1.15
0.99
0.68
0.27
-0.10
-0.31
-0.27
-0.01
0.34
0.63
0.70
0.51
0.14
-0.27
-0.59
-0.72
-0.67
-0.49
-0.31
-0.23
-0.32
-0.60
-1.03
-1.48
-1.81
-1.88
-1.66
-1.23
-0.79
-0.49
-0.44
-0.57
-0.73
-0.77
-0.61
-0.29
0.09
0.42
0.68
0.88
1.06
1.24
1.36
1.39
1.28
1.04
0.74
0.44
0.21
0.09
0.05
0.04
0.03
-0.04
-0.17
-0.34
-0.47
-0.52
-0.47
-0.34
-0.21
-0.20
-0.39
-0.83
-1.45
-2.11
-2.62
-2.84
-2.73
-2.38
-1.96
-1.67
-1.65
-1.89
-2.28
-2.66
-2.90
-2.97
-2.86
-2.59
-2.17
-1.59
-0.87
-0.09
0.62
1.18
1.55
1.79
1.97
2.15
2.33
2.47
2.54
2.52
2.47
2.44
2.42
2.40
2.31
2.14
1.92
1.71
1.56
1.47
1.40
1.27
1.06
0.80
0.58
0.45
0.45
0.54
0.63
0.66
0.58
0.38
0.10
-0.24
-0.59
-0.87
-1.01
-0.93
-0.62
-0.15
0.38
0.84
1.17
1.38
1.54
1.66
1.74
1.69
1.42
0.92
0.28
-0.34
-0.77
-0.90
-0.75
-0.42
-0.08
0.14
0.19
0.07
-0.14
-0.35
-0.49
-0.51
-0.43
-0.29
-0.15
-0.07
-0.08
-0.17
-0.30
-0.42
-0.47
-0.44
-0.35
-0.26
-0.27
-0.39
-0.58
-0.72
-0.69
-0.43
0.02
0.51
0.89
1.02
0.89
0.55
0.10
-0.36
-0.74
-0.97
-0.99
-0.79
-0.40
0.05
0.44
0.65
0.65
0.49
0.26
0.06
-0.07
-0.15
-0.20
-0.26
-0.35
-0.47
-0.64
-0.85
-1.10
-1.35
-1.53
-1.56
-1.41
-1.11
-0.75
-0.46
-0.31
-0.31
-0.41
-0.49
-0.46
-0.28
0.03
0.38
0.66
0.79
0.74
0.55
0.28
0.04
-0.11
-0.18
-0.16
-0.11
-0.05
-0.01
0.02
0.04
0.02
-0.01
-0.04
-0.04
0.03
0.16
0.35
0.54
0.69
0.74
0.67
0.49
0.26
0.06
-0.06
-0.09
-0.14
-0.28
-0.57
-0.97
-1.38
-1.65
-1.73
-1.62
-1.37
-1.04
-0.68
-0.31
0.05
0.34
0.51
0.52
0.41
0.27
0.18
0.20
0.33
0.54
0.77
0.96
1.05
1.00
0.80
0.52
0.21
-0.02
-0.12
-0.11
-0.03
0.05
0.05
-0.05
-0.23
-0.44
-0.62
-0.70
-0.64
-0.45
-0.19
0.06
0.20
0.19
0.05
-0.16
-0.39
-0.59
-0.76
-0.89
-0.93
-0.82
-0.52
-0.07
0.44
0.88
1.13
1.20
1.14
1.05
0.97
0.89
0.76
0.56
0.33
0.15
0.09
0.15
0.29
0.40
0.40
0.29
0.08
-0.15
-0.36
-0.55
-0.71
-0.84
-0.92
-0.94
-0.95
-1.01
-1.22
-1.59
-2.06
-2.48
-2.69
-2.64
-2.38
-2.04
-1.75
-1.55
-1.42
-1.27
-1.07
-0.84
-0.66
-0.58
-0.55
-0.48
-0.25
0.19
0.80
1.44
1.97
2.29
2.36
2.28
2.14
2.04
1.99
1.93
1.75
1.39
0.88
0.32
-0.14
-0.39
-0.44
-0.36
-0.28
-0.30
-0.41
-0.54
-0.62
-0.64
-0.62
-0.64
-0.77
-1.01
-1.25
-1.39
-1.31
-0.97
-0.40
0.29
0.97
1.52
1.90
2.09
2.09
1.95
1.67
1.32
0.95
0.65
0.48
0.46
0.56
0.70
0.80
0.84
0.83
0.82
0.78
0.71
0.55
0.33
0.09
-0.07
-0.12
-0.07
-0.00
-0.00
-0.12
-0.33
-0.56
-0.72
-0.81
-0.87
-0.95
-1.06
-1.14
-1.09
-0.82
-0.36
0.20
0.67
0.94
0.96
0.80
0.58
0.41
0.34
0.35
0.37
0.38
0.36
0.36
0.39
0.49
0.60
0.67
0.65
0.50
0.24
-0.07
-0.38
-0.62
-0.72
-0.67
-0.45
-0.12
0.24
0.56
0.73
0.71
0.51
0.15
-0.29
-0.72
-1.08
-1.31
-1.36
-1.20
-0.81
-0.26
0.35
0.85
1.13
1.14
0.93
0.60
0.30
0.11
0.04
0.02
-0.01
-0.09
-0.24
-0.41
-0.57
-0.69
-0.76
-0.75
-0.66
-0.49
-0.30
-0.19
-0.24
-0.47
-0.83
-1.23
-1.58
-1.82
-1.94
-1.95
-1.84
-1.61
-1.29
-0.98
-0.81
-0.84
-1.06
-1.32
-1.41
-1.20
-0.72
-0.17
0.22
0.27
-0.03
-0.54
-1.07
-1.49
-1.73
-1.84
-1.85
-1.80
-1.68
-1.47
-1.16
-0.78
-0.36
0.08
0.51
0.90
1.20
1.38
1.42
1.34
1.22
1.12
1.11
1.18
1.28
1.33
1.29
1.13
0.91
0.70
0.56
0.53
0.61
0.75
0.91
1.05
1.19
1.35
1.55
1.74
1.82
1.72
1.40
0.92
0.39
-0.05
-0.32
-0.37
-0.24
0.01
0.29
0.53
0.69
0.77
0.74
0.61
0.40
0.17
-0.02
-0.11
-0.07
0.06
0.17
0.17
-0.01
-0.35
-0.75
-1.07
-1.21
-1.15
-0.97
-0.76
-0.60
-0.51
-0.43
-0.31
-0.10
0.18
0.51
0.80
1.01
1.12
1.14
1.12
1.11
1.12
1.14
1.15
1.13
1.08
1.03
1.00
1.02
1.05
1.06
0.98
0.77
0.43
0.02
-0.35
-0.57
-0.60
-0.43
-0.15
0.11
0.25
0.18
-0.06
-0.43
-0.81
-1.10
-1.20
-1.08
-0.76
-0.31
0.15
0.48
0.60
0.49
0.22
-0.07
-0.29
-0.36
-0.26
-0.04
0.25
0.53
0.73
0.78
0.70
0.52
0.33
0.20
0.16
0.16
0.11
-0.06
-0.35
-0.69
-0.97
-1.10
-1.03
-0.80
-0.52
-0.28
-0.15
-0.13
-0.20
-0.31
-0.44
-0.58
-0.72
-0.83
-0.86
-0.76
-0.47
-0.05
0.41
0.78
0.94
0.85
0.58
0.27
0.06
0.04
0.15
0.28
0.27
0.06
-0.31
-0.71
-0.94
-0.89
-0.62
-0.30
-0.17
-0.38
-0.91
-1.55
-2.05
-2.27
-2.21
-2.05
-1.99
-2.17
-2.56
-2.96
-3.17
-3.07
-2.69
-2.17
-1.68
-1.26
-0.86
-0.37
0.28
1.04
1.77
2.35
2.67
2.76
2.68
2.51
2.27
2.00
1.71
1.48
1.37
1.38
1.49
1.56
1.51
1.27
0.90
0.51
0.24
0.15
0.22
0.38
0.55
0.65
0.66
0.58
0.41
0.15
-0.19
-0.54
-0.83
-0.96
-0.88
-0.63
-0.28
0.05
0.31
0.46
0.52
0.54
0.55
0.56
0.56
0.55
0.52
0.47
0.42
0.35
0.30
0.30
0.38
0.53
0.73
0.89
0.90
0.74
0.43
0.11
-0.08
-0.07
0.12
0.34
0.47
0.42
0.21
-0.10
-0.40
-0.67
-0.92
-1.18
-1.45
-1.65
-1.70
-1.51
-1.11
-0.60
-0.11
0.25
0.47
0.57
0.64
0.75
0.88
0.99
1.02
0.94
0.76
0.55
0.36
0.23
0.13
0.06
0.02
0.06
0.20
0.43
0.70
0.92
1.01
0.97
0.82
0.64
0.45
0.24
-0.02
-0.35
-0.72
-1.03
-1.19
-1.18
-1.02
-0.79
-0.60
-0.50
-0.54
-0.69
-0.91
-1.13
-1.26
-1.24
-1.05
-0.70
-0.25
0.21
0.59
0.83
0.93
0.91
0.79
0.57
0.25
-0.14
-0.54
-0.84
-0.94
-0.77
-0.34
0.22
0.73
1.02
0.96
0.57
-0.04
-0.69
-1.21
-1.49
-1.52
-1.35
-1.09
-0.86
-0.74
-0.79
-0.99
-1.29
-1.64
-2.00
-2.31
-2.57
-2.74
-2.80
-2.71
-2.44
-1.98
-1.35
-0.61
0.16
0.85
1.40
1.78
2.01
2.13
2.20
2.24
2.25
2.20
2.09
1.95
1.86
1.84
1.92
2.03
2.09
2.01
1.77
1.44
1.09
0.85
0.72
0.67
0.62
0.49
0.24
-0.09
-0.46
-0.79
-1.02
-1.14
-1.15
-1.08
-0.95
-0.82
-0.73
-0.71
-0.73
-0.75
-0.68
-0.48
-0.13
0.32
0.76
1.09
1.23
1.20
1.07
0.94
0.86
0.84
0.86
0.84
0.77
0.68
0.65
0.73
0.91
1.09
1.15
1.00
0.66
0.25
-0.06
-0.18
-0.12
-0.00
0.02
-0.15
-0.44
-0.72
-0.84
-0.74
-0.49
-0.26
-0.23
-0.44
-0.84
-1.26
-1.56
-1.64
-1.53
-1.30
-1.06
-0.87
-0.73
-0.62
-0.51
-0.36
-0.15
0.12
0.42
0.72
0.95
1.09
1.11
1.02
0.84
0.60
0.35
0.17
0.14
0.27
0.55
0.87
1.10
1.14
0.96
0.63
0.28
0.03
-0.07
-0.02
0.09
0.17
0.16
0.04
-0.20
-0.50
-0.79
-0.99
-1.03
-0.90
-0.66
-0.45
-0.39
-0.55
-0.90
-1.34
-1.70
-1.88
-1.83
-1.59
-1.23
-0.83
-0.44
-0.08
0.22
0.46
0.63
0.72
0.76
0.75
0.72
0.63
0.46
0.20
-0.14
-0.50
-0.83
-1.11
-1.31
-1.47
-1.59
-1.67
-1.69
-1.64
-1.51
-1.33
-1.14
-1.01
-0.94
-0.97
-1.04
-1.13
-1.20
-1.19
-1.08
-0.84
-0.49
-0.10
0.22
0.38
0.34
0.17
0.02
0.04
0.31
0.77
1.29
1.73
2.01
2.13
2.14
2.09
1.99
1.83
1.62
1.41
1.26
1.22
1.28
1.38
1.40
1.27
0.97
0.55
0.11
-0.26
-0.50
-0.61
-0.63
-0.61
-0.56
-0.49
-0.38
-0.23
-0.08
0.01
0.00
-0.09
-0.23
-0.34
-0.39
-0.40
-0.40
-0.40
-0.41
-0.38
-0.27
-0.09
0.16
0.44
0.73
1.02
1.28
1.48
1.53
1.38
1.02
0.56
0.16
-0.03
0.00
0.19
0.39
0.49
0.49
0.44
0.44
0.51
0.58
0.51
0.24
-0.17
-0.58
-0.78
-0.71
-0.42
-0.10
0.05
-0.06
-0.35
-0.63
-0.72
-0.53
-0.14
0.28
0.56
0.59
0.41
0.12
-0.17
-0.37
-0.44
-0.36
-0.10
0.29
0.72
1.07
1.19
0.99
0.49
-0.21
-0.94
-1.51
-1.80
-1.76
-1.41
-0.83
-0.16
0.46
0.89
1.08
1.03
0.78
0.43
0.05
-0.30
-0.58
-0.79
-0.92
-0.99
-1.03
-1.06
-1.11
-1.18
-1.24
-1.27
-1.22
-1.08
-0.86
-0.60
-0.33
-0.09
0.09
0.23
0.33
0.40
0.41
0.34
0.17
-0.09
-0.37
-0.60
-0.69
-0.61
-0.38
-0.06
0.27
0.51
0.60
0.54
0.34
0.07
-0.21
-0.48
-0.72
-0.95
-1.20
-1.46
-1.68
-1.79
-1.78
-1.70
-1.65
-1.72
-1.93
-2.22
-2.46
-2.52
-2.36
-2.02
-1.56
-1.03
-0.44
0.18
0.78
1.28
1.60
1.78
1.89
2.05
2.32
2.65
2.91
2.95
2.74
2.35
1.94
1.65
1.57
1.69
1.92
2.17
2.32
2.28
2.01
1.50
0.85
0.18
-0.35
-0.63
-0.63
-0.46
-0.26
-0.18
-0.30
-0.64
-1.06
-1.42
-1.58
-1.47
-1.15
-0.77
-0.45
-0.23
-0.06
0.19
0.58
1.07
1.49
1.63
1.39
0.80
0.06
-0.61
-1.03
-1.14
-0.99
-0.67
-0.21
0.33
0.90
1.37
1.63
1.55
1.13
0.47
-0.22
-0.74
-0.97
-0.91
-0.69
-0.46
-0.33
-0.32
-0.36
-0.39
-0.35
-0.26
-0.15
-0.06
0.02
0.16
0.39
0.71
1.03
1.23
1.25
1.10
0.89
0.77
0.81
0.99
1.17
1.19
0.97
0.58
0.16
-0.09
-0.09
0.15
0.48
0.72
0.76
0.59
0.26
-0.12
-0.47
-0.77
-1.02
-1.23
-1.40
-1.53
-1.55
-1.42
-1.11
-0.62
-0.04
0.53
0.92
1.06
0.93
0.63
0.32
0.19
0.29
0.57
0.89
1.06
0.98
0.64
0.16
-0.30
-0.61
-0.68
-0.48
-0.10
0.33
0.66
0.77
0.62
0.25
-0.27
-0.82
-1.31
-1.69
-1.92
-1.98
-1.86
-1.58
-1.20
-0.86
-0.64
-0.58
-0.63
-0.65
-0.55
-0.28
0.10
0.50
0.79
0.92
0.91
0.77
0.57
0.32
0.01
-0.37
-0.78
-1.12
-1.30
-1.27
-1.06
-0.76
-0.49
-0.34
-0.33
-0.42
-0.55
-0.69
-0.81
-0.90
-0.96
-1.01
-1.05
-1.14
-1.33
-1.62
-1.96
-2.24
-2.33
-2.15
-1.72
-1.09
-0.37
0.32
0.89
1.26
1.40
1.33
1.12
0.88
0.73
0.71
0.83
1.01
1.18
1.30
1.39
1.50
1.65
1.82
1.95
1.96
1.80
1.47
1.04
0.57
0.15
-0.18
-0.39
-0.48
-0.46
-0.34
-0.13
0.11
0.33
0.48
0.53
0.47
0.34
0.20
0.07
-0.00
0.00
0.10
0.29
0.55
0.84
1.07
1.18
1.11
0.89
0.56
0.23
-0.03
-0.17
-0.21
-0.21
-0.23
-0.29
-0.37
-0.42
-0.41
-0.34
-0.25
-0.17
-0.14
-0.18
-0.27
-0.37
-0.45
-0.53
-0.56
-0.55
-0.46
-0.28
-0.01
0.34
0.70
1.04
1.28
1.35
1.23
0.93
0.50
0.03
-0.38
-0.64
-0.73
-0.64
-0.42
-0.12
0.18
0.43
0.61
0.73
0.78
0.76
0.67
0.47
0.19
-0.14
-0.44
-0.64
-0.73
-0.75
-0.78
-0.84
-0.92
-0.99
-1.02
-1.04
-1.10
-1.21
-1.32
-1.35
-1.20
-0.84
-0.34
0.15
0.50
0.60
0.48
0.20
-0.13
-0.39
-0.53
-0.52
-0.37
-0.09
0.27
0.67
1.05
1.30
1.33
1.07
0.59
-0.00
-0.53
-0.87
-0.97
-0.89
-0.72
-0.58
-0.50
-0.51
-0.58
-0.70
-0.86
-1.03
-1.18
-1.29
-1.33
-1.30
-1.19
-1.03
-0.81
-0.56
-0.34
-0.18
-0.15
-0.25
-0.44
-0.66
-0.83
-0.92
-0.91
-0.83
-0.68
-0.47
-0.18
0.15
0.52
0.86
1.14
1.31
1.39
1.39
1.32
1.23
1.14
1.07
1.02
0.97
0.86
0.66
0.38
0.06
-0.20
-0.33
-0.32
-0.22
-0.12
-0.07
-0.05
-0.01
0.14
0.41
0.77
1.13
1.41
1.57
1.58
1.45
1.22
0.91
0.58
0.32
0.18
0.22
0.41
0.64
0.80
0.81
0.66
0.40
0.15
0.01
0.03
0.17
0.32
0.34
0.17
-0.14
-0.47
-0.68
-0.67
-0.49
-0.28
-0.18
-0.27
-0.51
-0.81
-1.05
-1.22
-1.35
-1.45
-1.50
-1.42
-1.09
-0.52
0.23
0.94
1.43
1.58
1.40
1.03
0.66
0.42
0.39
0.54
0.80
1.06
1.27
1.36
1.35
1.26
1.13
1.00
0.89
0.83
0.80
0.77
0.67
0.45
0.08
-0.40
-0.90
-1.31
-1.57
-1.67
-1.66
-1.64
-1.65
-1.69
-1.72
-1.67
-1.52
-1.28
-1.01
-0.79
-0.65
-0.60
-0.59
-0.54
-0.34
0.07
0.69
1.40
2.01
2.34
2.28
1.84
1.16
0.44
-0.15
-0.47
-0.50
-0.30
0.01
0.30
0.44
0.40
0.20
-0.10
-0.41
-0.67
-0.86
-0.98
-1.07
-1.14
-1.20
-1.23
-1.25
-1.25
-1.24
-1.23
-1.26
-1.38
-1.61
-1.94
-2.30
-2.59
-2.68
-2.52
-2.09
-1.49
-0.82
-0.18
0.33
0.69
0.90
1.03
1.13
1.27
1.46
1.70
1.92
2.08
2.13
2.08
1.97
1.84
1.74
1.67
1.61
1.52
1.38
1.20
1.01
0.85
0.75
0.69
0.62
0.51
0.32
0.09
-0.14
-0.32
-0.48
-0.63
-0.80
-0.94
-0.98
-0.86
-0.58
-0.24
0.01
0.06
-0.11
-0.40
-0.63
-0.68
-0.51
-0.16
0.27
0.69
1.05
1.34
1.56
1.70
1.73
1.61
1.29
0.77
0.11
-0.57
-1.09
-1.31
-1.18
-0.77
-0.25
0.21
0.52
0.67
0.71
0.69
0.61
0.46
0.23
0.01
-0.13
-0.12
0.02
0.20
0.29
0.22
0.02
-0.22
-0.43
-0.55
-0.63
-0.71
-0.84
-0.99
-1.14
-1.24
-1.27
-1.22
-1.09
-0.90
-0.61
-0.22
0.23
0.66
0.97
1.08
0.95
0.68
0.41
0.26
0.30
0.48
0.66
0.73
0.63
0.41
0.16
0.02
0.00
0.06
0.10
0.02
-0.18
-0.46
-0.71
-0.90
-1.00
-1.05
-1.10
-1.15
-1.20
-1.21
-1.18
-1.14
-1.11
-1.10
-1.12
-1.14
-1.14
-1.14
-1.17
-1.23
-1.27
-1.22
-1.00
-0.59
-0.03
0.56
1.07
1.38
1.47
1.40
1.26
1.14
1.10
1.13
1.18
1.19
1.09
0.88
0.57
0.26
0.06
0.02
0.18
0.46
0.75
0.96
1.01
0.92
0.74
0.54
0.35
0.20
0.08
-0.01
-0.08
-0.14
-0.23
-0.41
-0.64
-0.89
-1.07
-1.11
-1.03
-0.91
-0.86
-0.94
-1.12
-1.28
-1.30
-1.11
-0.74
-0.29
0.12
0.41
0.57
0.64
0.67
0.71
0.77
0.88
1.00
1.09
1.12
1.07
0.93
0.75
0.59
0.53
0.57
0.67
0.75
0.77
0.72
0.65
0.63
0.70
0.86
1.03
1.16
1.19
1.12
0.94
0.69
0.38
0.05
-0.25
-0.49
-0.65
-0.73
-0.75
-0.74
-0.71
-0.67
-0.69
-0.80
-1.05
-1.40
-1.71
-1.81
-1.57
-0.98
-0.17
0.65
1.27
1.56
1.54
1.31
1.02
0.79
0.68
0.69
0.75
0.80
0.76
0.61
0.35
0.03
-0.29
-0.57
-0.76
-0.85
-0.81
-0.66
-0.46
-0.28
-0.19
-0.24
-0.45
-0.76
-1.10
-1.42
-1.63
-1.73
-1.69
-1.54
-1.34
-1.16
-1.09
-1.18
-1.44
-1.80
-2.18
-2.46
-2.52
-2.28
-1.70
-0.83
0.21
1.23
2.05
2.53
2.66
2.52
2.27
2.01
1.79
1.59
1.37
1.13
0.91
0.81
0.86
1.05
1.27
1.39
1.32
1.07
0.75
0.47
0.30
0.26
0.26
0.21
0.08
-0.09
-0.21
-0.19
-0.05
0.12
0.19
0.05
-0.30
-0.78
-1.23
-1.52
-1.63
-1.56
-1.39
-1.16
-0.92
-0.66
-0.42
-0.16
0.10
0.34
0.52
0.59
0.50
0.29
0.06
-0.03
0.07
0.32
0.57
0.68
0.61
0.50
0.51
0.77
1.21
1.65
1.87
1.75
1.32
0.72
0.13
-0.39
-0.82
-1.17
-1.42
-1.53
-1.47
-1.25
-0.93
-0.60
-0.34
-0.21
-0.26
-0.45
-0.74
-1.03
-1.20
-1.16
-0.88
-0.44
0.04
0.42
0.65
0.75
0.79
0.82
0.87
0.90
0.88
0.83
0.76
0.67
0.53
0.29
-0.03
-0.38
-0.63
-0.65
-0.43
-0.01
0.46
0.84
1.05
1.10
1.01
0.86
0.70
0.56
0.44
0.34
0.22
0.05
-0.20
-0.52
-0.88
-1.24
-1.53
-1.73
-1.81
-1.75
-1.55
-1.21
-0.79
-0.34
0.06
0.38
0.60
0.74
0.83
0.85
0.80
0.68
0.49
0.30
0.15
0.09
0.12
0.22
0.34
0.45
0.53
0.54
0.47
0.34
0.17
0.04
-0.03
-0.03
0.01
-0.01
-0.16
-0.43
-0.75
-1.00
-1.12
-1.09
-0.97
-0.83
-0.74
-0.69
-0.66
-0.64
-0.63
-0.65
-0.71
-0.79
-0.81
-0.73
-0.53
-0.24
0.07
0.33
0.49
0.58
0.61
0.60
0.56
0.50
0.43
0.38
0.37
0.43
0.55
0.67
0.78
0.82
0.79
0.66
0.44
0.14
-0.16
-0.37
-0.41
-0.28
-0.08
0.05
0.00
-0.23
-0.53
-0.74
-0.74
-0.57
-0.39
-0.37
-0.62
-1.05
-1.45
-1.62
-1.43
-0.96
-0.39
0.08
0.40
0.60
0.81
1.09
1.38
1.56
1.49
1.16
0.69
0.23
-0.06
-0.17
-0.15
-0.13
-0.18
-0.30
-0.44
-0.50
-0.46
-0.32
-0.12
0.08
0.22
0.27
0.23
0.11
-0.04
-0.17
-0.23
-0.20
-0.07
0.12
0.28
0.36
0.31
0.09
-0.25
-0.62
-0.90
-0.99
-0.85
-0.50
-0.05
0.41
0.80
1.13
1.42
1.66
1.81
1.80
1.57
1.15
0.64
0.17
-0.14
-0.21
-0.04
0.30
0.71
1.04
1.20
1.11
0.81
0.42
0.10
-0.00
0.14
0.43
0.72
0.85
0.71
0.33
-0.18
-0.71
-1.11
-1.34
-1.40
-1.35
-1.26
-1.17
-1.07
-0.94
-0.74
-0.45
-0.11
0.20
0.44
0.56
0.56
0.49
0.38
0.25
0.11
-0.05
-0.21
-0.34
-0.39
-0.32
-0.13
0.11
0.31
0.40
0.41
0.39
0.41
0.50
0.59
0.60
0.46
0.20
-0.08
-0.29
-0.41
-0.50
-0.64
-0.87
-1.16
-1.41
-1.50
-1.44
-1.27
-1.10
-1.02
-1.03
-1.08
-1.06
-0.91
-0.61
-0.21
0.23
0.61
0.90
1.07
1.12
1.07
0.93
0.72
0.44
0.15
-0.11
-0.27
-0.31
-0.24
-0.11
0.01
0.08
0.04
-0.09
-0.27
-0.48
-0.67
-0.85
-1.01
-1.15
-1.23
-1.22
-1.12
-0.94
-0.76
-0.64
-0.63
-0.74
-0.88
-0.96
-0.88
-0.64
-0.29
0.04
0.27
0.35
0.35
0.41
0.61
0.96
1.36
1.64
1.67
1.43
1.03
0.64
0.38
0.26
0.23
0.21
0.16
0.12
0.17
0.34
0.56
0.73
0.74
0.54
0.19
-0.17
-0.42
-0.49
-0.38
-0.21
-0.08
-0.09
-0.25
-0.49
-0.69
-0.78
-0.72
-0.58
-0.50
-0.56
-0.76
-1.02
-1.20
-1.17
-0.93
-0.56
-0.18
0.10
0.29
0.45
0.65
0.94
1.26
1.52
1.62
1.53
1.31
1.05
0.87
0.83
0.93
1.09
1.23
1.25
1.11
0.84
0.52
0.23
0.06
0.03
0.13
0.28
0.41
0.48
0.49
0.44
0.36
0.24
0.05
-0.21
-0.54
-0.88
-1.15
-1.27
-1.23
-1.07
-0.91
-0.84
-0.88
-0.96
-0.97
-0.82
-0.50
-0.08
0.30
0.53
0.58
0.51
0.40
0.32
0.27
0.18
0.03
-0.18
-0.36
-0.41
-0.28
-0.02
0.29
0.55
0.71
0.76
0.75
0.71
0.64
0.57
0.48
0.39
0.30
0.21
0.12
0.00
-0.12
-0.20
-0.24
-0.25
-0.29
-0.41
-0.65
-0.95
-1.20
-1.31
-1.25
-1.09
-0.95
-0.94
-1.10
-1.33
-1.47
-1.40
-1.08
-0.58
-0.05
0.39
0.69
0.88
1.03
1.15
1.21
1.14
0.91
0.55
0.20
-0.02
-0.00
0.26
0.65
1.01
1.20
1.15
0.89
0.52
0.18
-0.06
-0.14
-0.09
0.05
0.19
0.28
0.26
0.14
-0.03
-0.19
-0.29
-0.34
-0.39
-0.51
-0.72
-0.98
-1.21
-1.34
-1.38
-1.40
-1.48
-1.60
-1.70
-1.66
-1.45
-1.10
-0.73
-0.48
-0.38
-0.41
-0.43
-0.35
-0.09
0.30
0.73
1.07
1.23
1.15
0.89
0.51
0.14
-0.08
-0.09
0.09
0.38
0.63
0.77
0.80
0.78
0.83
0.99
1.21
1.37
1.35
1.10
0.70
0.33
0.14
0.21
0.48
0.76
0.90
0.80
0.51
0.15
-0.17
-0.37
-0.48
-0.51
-0.54
-0.57
-0.62
-0.72
-0.88
-1.07
-1.23
-1.27
-1.08
-0.66
-0.08
0.52
1.00
1.28
1.37
1.32
1.22
1.09
0.91
0.67
0.41
0.16
-0.00
-0.07
-0.05
0.03
0.15
0.30
0.50
0.71
0.90
1.01
0.98
0.85
0.64
0.42
0.24
0.11
0.05
0.01
0.00
0.01
0.04
0.08
0.14
0.21
0.26
0.22
0.01
-0.41
-1.00
-1.60
-2.02
-2.13
-1.93
-1.56
-1.22
-1.04
-1.04
-1.09
-1.06
-0.89
-0.60
-0.29
-0.06
0.04
0.06
0.06
0.09
0.16
0.23
0.30
0.34
0.40
0.49
0.63
0.80
0.94
1.02
1.00
0.88
0.71
0.54
0.42
0.38
0.40
0.45
0.51
0.57
0.60
0.58
0.51
0.39
0.24
0.09
-0.01
-0.06
-0.08
-0.10
-0.16
-0.24
-0.35
-0.49
-0.68
-0.95
-1.32
-1.70
-1.96
-1.98
-1.71
-1.20
-0.63
-0.15
0.15
0.33
0.51
0.80
1.15
1.42
1.43
1.08
0.49
-0.10
-0.42
-0.31
0.14
0.68
1.04
1.05
0.73
0.27
-0.13
-0.32
-0.30
-0.14
0.06
0.22
0.31
0.32
0.26
0.13
-0.05
-0.22
-0.34
-0.34
-0.22
-0.02
0.17
0.28
0.25
0.06
-0.24
-0.60
-0.96
-1.30
-1.59
-1.79
-1.85
-1.69
-1.28
-0.65
0.08
0.74
1.19
1.35
1.30
1.16
1.07
1.13
1.31
1.50
1.54
1.34
0.92
0.37
-0.10
-0.34
-0.29
-0.05
0.23
0.43
0.48
0.43
0.35
0.28
0.21
0.07
-0.17
-0.48
-0.74
-0.85
-0.74
-0.48
-0.22
-0.11
-0.23
-0.55
-0.94
-1.28
-1.48
-1.55
-1.56
-1.58
-1.63
-1.67
-1.60
-1.34
-0.89
-0.32
0.25
0.70
0.96
1.05
1.00
0.89
0.74
0.57
0.43
0.31
0.27
0.31
0.41
0.49
0.46
0.28
-0.01
-0.30
-0.46
-0.45
-0.31
-0.15
-0.12
-0.25
-0.47
-0.68
-0.75
-0.68
-0.54
-0.43
-0.42
-0.47
-0.50
-0.43
-0.27
-0.12
-0.11
-0.32
-0.73
-1.20
-1.58
-1.72
-1.58
-1.20
-0.64
-0.00
0.66
1.29
1.83
2.21
2.35
2.22
1.84
1.27
0.63
0.06
-0.35
-0.50
-0.37
-0.01
0.44
0.85
1.06
1.01
0.73
0.32
-0.10
-0.42
-0.61
-0.67
-0.64
-0.56
-0.45
-0.33
-0.22
-0.09
0.05
0.20
0.33
0.40
0.34
0.12
-0.23
-0.65
-0.99
-1.15
-1.08
-0.78
-0.32
0.21
0.73
1.16
1.44
1.51
1.35
0.96
0.47
0.03
-0.20
-0.12
0.22
0.65
0.96
1.02
0.81
0.45
0.15
0.06
0.22
0.56
0.95
1.24
1.33
1.20
0.87
0.46
0.10
-0.11
-0.12
-0.02
0.09
0.09
-0.06
-0.32
-0.60
-0.84
-1.01
-1.16
-1.31
-1.42
-1.39
-1.11
-0.55
0.21
1.00
1.62
1.92
1.86
1.51
1.02
0.55
0.19
-0.04
-0.19
-0.30
-0.38
-0.38
-0.24
0.07
0.49
0.92
1.23
1.33
1.22
0.95
0.60
0.27
-0.04
-0.32
-0.60
-0.87
-1.05
-1.07
-0.90
-0.58
-0.26
-0.12
-0.26
-0.67
-1.20
-1.64
-1.86
-1.80
-1.55
-1.24
-0.98
-0.80
-0.64
-0.42
-0.08
0.36
0.81
1.12
1.20
1.02
0.70
0.41
0.29
0.39
0.64
0.87
0.97
0.92
0.81
0.74
0.78
0.88
0.92
0.78
0.43
-0.04
-0.49
-0.80
-0.90
-0.83
-0.68
-0.52
-0.40
-0.35
-0.39
-0.54
-0.78
-1.06
-1.28
-1.38
-1.33
-1.18
-1.00
-0.85
-0.71
-0.53
-0.24
0.18
0.69
1.17
1.54
1.74
1.76
1.65
1.46
1.23
0.99
0.75
0.52
0.34
0.23
0.17
0.15
0.13
0.09
0.05
0.04
0.13
0.30
0.48
0.55
0.43
0.14
-0.19
-0.40
-0.38
-0.20
-0.02
0.00
-0.21
-0.56
-0.87
-0.99
-0.88
-0.63
-0.40
-0.31
-0.37
-0.50
-0.59
-0.59
-0.49
-0.33
-0.15
0.02
0.17
0.30
0.38
0.42
0.45
0.48
0.49
0.46
0.33
0.11
-0.11
-0.24
-0.18
0.07
0.43
0.78
1.03
1.15
1.17
1.13
1.02
0.82
0.51
0.13
-0.21
-0.43
-0.49
-0.46
-0.43
-0.49
-0.65
-0.86
-1.06
-1.21
-1.31
-1.40
-1.47
-1.50
-1.45
-1.29
-1.03
-0.70
-0.33
0.06
0.50
0.96
1.39
1.66
1.71
1.50
1.12
0.69
0.36
0.19
0.19
0.30
0.44
0.57
0.65
0.72
0.80
0.85
0.83
0.64
0.25
-0.29
-0.83
-1.21
-1.32
-1.16
-0.85
-0.56
-0.42
-0.47
-0.65
-0.86
-1.00
-1.02
-0.94
-0.81
-0.68
-0.61
-0.58
-0.56
-0.46
-0.23
0.14
0.57
0.96
1.21
1.26
1.15
0.96
0.73
0.51
0.29
0.10
-0.06
-0.14
-0.12
0.01
0.25
0.52
0.75
0.87
0.82
0.64
0.36
0.09
-0.13
-0.26
-0.35
-0.43
-0.53
-0.67
-0.80
-0.92
-0.99
-1.01
-0.96
-0.82
-0.58
-0.29
0.00
0.20
0.26
0.21
0.11
-0.01
-0.15
-0.33
-0.59
-0.88
-1.11
-1.16
-0.98
-0.60
-0.13
0.35
0.76
1.05
1.20
1.19
1.01
0.71
0.40
0.17
0.12
0.24
0.46
0.70
0.86
0.94
0.93
0.85
0.69
0.46
0.19
-0.09
-0.32
-0.46
-0.51
-0.47
-0.40
-0.31
-0.23
-0.16
-0.11
-0.08
-0.09
-0.16
-0.28
-0.45
-0.63
-0.80
-0.91
-0.93
-0.85
-0.69
-0.54
-0.45
-0.44
-0.44
-0.34
-0.04
0.46
1.06
1.57
1.83
1.79
1.53
1.20
0.90
0.66
0.45
0.22
0.02
-0.07
0.03
0.30
0.62
0.84
0.86
0.69
0.44
0.21
0.06
-0.05
-0.19
-0.41
-0.67
-0.88
-0.98
-0.94
-0.82
-0.68
-0.59
-0.54
-0.51
-0.46
-0.41
-0.38
-0.44
-0.58
-0.77
-0.93
-1.02
-1.01
-0.93
-0.84
-0.77
-0.76
-0.79
-0.82
-0.75
-0.52
-0.11
0.42
0.97
1.41
1.62
1.62
1.43
1.14
0.83
0.52
0.25
0.05
-0.05
-0.03
0.06
0.15
0.14
0.02
-0.16
-0.28
-0.26
-0.10
0.10
0.21
0.14
-0.13
-0.53
-0.96
-1.36
-1.72
-2.01
-2.21
-2.29
-2.18
-1.85
-1.37
-0.84
-0.41
-0.19
-0.18
-0.31
-0.44
-0.44
-0.23
0.20
0.79
1.42
1.99
2.38
2.56
2.49
2.23
1.86
1.47
1.13
0.87
0.69
0.55
0.46
0.40
0.40
0.45
0.50
0.47
0.35
0.12
-0.15
-0.37
-0.47
-0.45
-0.37
-0.30
-0.31
-0.41
-0.54
-0.64
-0.64
-0.52
-0.31
-0.10
0.03
0.02
-0.12
-0.33
-0.50
-0.58
-0.55
-0.44
-0.32
-0.26
-0.26
-0.29
-0.33
-0.31
-0.23
-0.08
0.14
0.44
0.78
1.11
1.33
1.37
1.20
0.88
0.50
0.20
0.06
0.07
0.21
0.38
0.51
0.58
0.59
0.58
0.59
0.63
0.69
0.74
0.73
0.63
0.44
0.20
-0.06
-0.29
-0.53
-0.78
-1.04
-1.29
-1.43
-1.42
-1.26
-1.02
-0.79
-0.64
-0.57
-0.53
-0.45
-0.31
-0.15
-0.07
-0.14
-0.36
-0.66
-0.89
-0.95
-0.79
-0.46
-0.05
0.33
0.64
0.84
0.93
0.94
0.90
0.83
0.79
0.80
0.86
0.91
0.87
0.67
0.34
-0.03
-0.34
-0.51
-0.55
-0.56
-0.64
-0.84
-1.10
-1.29
-1.32
-1.14
-0.85
-0.57
-0.40
-0.38
-0.47
-0.57
-0.58
-0.48
-0.33
-0.22
-0.26
-0.52
-0.97
-1.47
-1.84
-1.92
-1.62
-1.00
-0.17
0.66
1.34
1.76
1.89
1.77
1.47
1.09
0.73
0.46
0.33
0.32
0.36
0.40
0.41
0.43
0.51
0.68
0.93
1.17
1.32
1.29
1.07
0.70
0.29
-0.09
-0.37
-0.55
-0.63
-0.62
-0.55
-0.43
-0.34
-0.30
-0.35
-0.45
-0.53
-0.53
-0.45
-0.37
-0.42
-0.72
-1.29
-2.01
-2.64
-2.97
-2.86
-2.33
-1.53
-0.64
0.17
0.82
1.27
1.53
1.63
1.57
1.37
1.06
0.71
0.42
0.24
0.23
0.37
0.62
0.91
1.14
1.25
1.22
1.06
0.81
0.53
0.26
0.02
-0.18
-0.32
-0.39
-0.37
-0.28
-0.12
0.09
0.32
0.54
0.70
0.72
0.55
0.17
-0.36
-0.91
-1.35
-1.60
-1.63
-1.50
-1.27
-0.99
-0.66
-0.22
0.31
0.89
1.40
1.70
1.71
1.44
0.98
0.49
0.12
-0.03
0.04
0.23
0.45
0.64
0.80
0.96
1.10
1.17
1.05
0.67
0.05
-0.65
-1.21
-1.41
-1.20
-0.68
-0.10
0.34
0.54
0.52
0.39
0.27
0.15
0.02
-0.19
-0.48
-0.81
-1.12
-1.37
-1.57
-1.70
-1.78
-1.77
-1.66
-1.44
-1.14
-0.76
-0.31
0.21
0.77
1.29
1.63
1.67
1.37
0.84
0.30
-0.04
-0.03
0.27
0.67
0.94
0.94
0.69
0.34
0.09
0.07
0.28
0.61
0.90
1.03
0.97
0.74
0.40
-0.01
-0.44
-0.83
-1.09
-1.14
-0.93
-0.51
-0.01
0.38
0.54
0.40
0.03
-0.43
-0.85
-1.14
-1.25
-1.21
-1.06
-0.81
-0.48
-0.10
0.31
0.68
0.96
1.12
1.16
1.08
0.90
0.65
0.34
0.01
-0.29
-0.50
-0.54
-0.40
-0.14
0.13
0.30
0.30
0.15
-0.07
-0.23
-0.27
-0.19
-0.03
0.13
0.24
0.28
0.25
0.19
0.10
0.03
-0.01
0.01
0.08
0.16
0.22
0.20
0.10
-0.10
-0.38
-0.70
-0.99
-1.16
-1.10
-0.73
-0.08
0.71
1.43
1.88
1.95
1.67
1.19
0.68
0.23
-0.09
-0.28
-0.34
-0.23
0.04
0.43
0.82
1.06
1.05
0.77
0.31
-0.19
-0.60
-0.83
-0.89
-0.83
-0.73
-0.65
-0.59
-0.56
-0.52
-0.43
-0.28
-0.09
0.09
0.18
0.13
-0.13
-0.59
-1.15
-1.69
-2.06
-2.16
-1.95
-1.49
-0.89
-0.28
0.24
0.61
0.85
0.99
1.07
1.13
1.16
1.11
0.94
0.66
0.32
0.01
-0.20
-0.28
-0.30
-0.33
-0.39
-0.45
-0.42
-0.23
0.09
0.45
0.69
0.71
0.54
0.26
0.01
-0.16
-0.26
-0.39
-0.63
-0.94
-1.24
-1.37
-1.29
-1.02
-0.73
-0.56
-0.58
-0.73
-0.84
-0.79
-0.53
-0.13
0.25
0.48
0.53
0.50
0.48
0.56
0.69
0.77
0.70
0.45
0.10
-0.24
-0.43
-0.40
-0.20
0.06
0.26
0.32
0.25
0.14
0.11
0.23
0.50
0.81
1.03
1.04
0.83
0.44
-0.03
-0.48
-0.88
-1.20
-1.41
-1.45
-1.27
-0.89
-0.43
-0.05
0.10
-0.03
-0.35
-0.70
-0.90
-0.87
-0.63
-0.28
0.08
0.39
0.66
0.94
1.21
1.43
1.52
1.40
1.11
0.77
0.54
0.56
0.83
1.24
1.57
1.66
1.44
0.99
0.44
-0.02
-0.29
-0.35
-0.22
0.01
0.25
0.39
0.37
0.15
-0.23
-0.68
-1.08
-1.35
-1.44
-1.40
-1.30
-1.23
-1.25
-1.38
-1.57
-1.72
-1.74
-1.54
-1.08
-0.43
0.33
1.06
1.63
1.93
1.90
1.58
1.08
0.58
0.24
0.14
0.25
0.42
0.55
0.59
0.59
0.65
0.81
1.03
1.18
1.17
0.96
0.65
0.37
0.24
0.30
0.48
0.66
0.73
0.64
0.38
0.01
-0.41
-0.80
-1.12
-1.33
-1.41
-1.38
-1.28
-1.20
-1.18
-1.28
-1.42
-1.52
-1.47
-1.21
-0.79
-0.31
0.11
0.42
0.65
0.86
1.06
1.22
1.23
1.03
0.63
0.15
-0.24
-0.40
-0.31
-0.04
0.23
0.36
0.30
0.07
-0.22
-0.44
-0.50
-0.38
-0.11
0.19
0.39
0.41
0.22
-0.10
-0.43
-0.65
-0.70
-0.61
-0.44
-0.27
-0.17
-0.16
-0.26
-0.47
-0.81
-1.23
-1.63
-1.83
-1.70
-1.19
-0.39
0.49
1.23
1.69
1.87
1.83
1.70
1.54
1.35
1.13
0.84
0.52
0.21
-0.01
-0.12
-0.11
0.02
0.23
0.49
0.73
0.88
0.89
0.74
0.46
0.16
-0.08
-0.20
-0.20
-0.14
-0.09
-0.12
-0.21
-0.34
-0.43
-0.48
-0.51
-0.61
-0.84
-1.17
-1.51
-1.74
-1.77
-1.60
-1.34
-1.09
-0.89
-0.70
-0.44
-0.09
0.30
0.59
0.67
0.55
0.36
0.26
0.37
0.66
0.99
1.19
1.22
1.14
1.08
1.17
1.42
1.71
1.86
1.76
1.39
0.90
0.51
0.36
0.47
0.72
0.94
0.98
0.84
0.56
0.27
0.03
-0.16
-0.34
-0.51
-0.69
-0.85
-0.97
-1.09
-1.23
-1.42
-1.60
-1.70
-1.64
-1.43
-1.12
-0.85
-0.69
-0.64
-0.60
-0.47
-0.18
0.23
0.65
0.98
1.16
1.21
1.16
1.06
0.94
0.79
0.66
0.57
0.55
0.61
0.69
0.72
0.64
0.46
0.22
0.01
-0.09
-0.07
0.06
0.26
0.48
0.64
0.69
0.55
0.21
-0.26
-0.73
-1.07
-1.16
-1.02
-0.77
-0.56
-0.53
-0.70
-0.99
-1.29
-1.49
-1.57
-1.58
-1.57
-1.54
-1.42
-1.15
-0.69
-0.10
0.50
0.98
1.25
1.32
1.27
1.21
1.17
1.13
1.03
0.81
0.50
0.18
-0.02
-0.04
0.12
0.38
0.65
0.85
0.97
1.03
1.03
0.94
0.75
0.45
0.11
-0.19
-0.40
-0.49
-0.52
-0.53
-0.53
-0.52
-0.44
-0.32
-0.18
-0.12
-0.16
-0.31
-0.48
-0.61
-0.65
-0.65
-0.67
-0.79
-1.03
-1.29
-1.46
-1.45
-1.25
-0.93
-0.59
-0.32
-0.13
0.02
0.16
0.33
0.50
0.62
0.65
0.61
0.52
0.46
0.48
0.56
0.68
0.80
0.90
0.99
1.08
1.18
1.28
1.37
1.43
1.45
1.38
1.24
1.02
0.77
0.53
0.37
0.30
0.25
0.16
-0.04
-0.33
-0.62
-0.81
-0.85
-0.79
-0.75
-0.81
-0.98
-1.20
-1.38
-1.48
-1.54
-1.60
-1.69
-1.76
-1.72
-1.49
-1.08
-0.57
-0.08
0.29
0.50
0.57
0.60
0.66
0.79
0.97
1.13
1.19
1.11
0.91
0.67
0.47
0.35
0.29
0.26
0.19
0.09
-0.01
-0.07
-0.08
-0.10
-0.16
-0.32
-0.54
-0.75
-0.87
-0.85
-0.73
-0.62
-0.60
-0.70
-0.90
-1.10
-1.21
-1.18
-1.02
-0.82
-0.66
-0.63
-0.76
-1.02
-1.32
-1.51
-1.48
-1.18
-0.63
0.04
0.68
1.16
1.42
1.49
1.42
1.29
1.12
0.94
0.76
0.58
0.44
0.34
0.31
0.34
0.42
0.50
0.54
0.51
0.42
0.32
0.28
0.33
0.47
0.66
0.79
0.79
0.62
0.29
-0.11
-0.49
-0.76
-0.89
-0.91
-0.87
-0.88
-0.96
-1.07
-1.15
-1.12
-0.99
-0.83
-0.74
-0.80
-0.99
-1.20
-1.30
-1.21
-0.91
-0.46
0.07
0.60
1.10
1.53
1.87
2.10
2.19
2.14
1.96
1.68
1.30
0.88
0.48
0.18
0.07
0.13
0.29
0.42
0.40
0.23
-0.01
-0.19
-0.23
-0.11
0.06
0.18
0.17
0.05
-0.06
-0.07
0.07
0.31
0.54
0.68
0.69
0.58
0.39
0.15
-0.13
-0.46
-0.80
-1.10
-1.29
-1.34
-1.28
-1.18
-1.12
-1.12
-1.09
-0.96
-0.66
-0.20
0.32
0.76
1.05
1.18
1.22
1.24
1.28
1.29
1.21
1.01
0.73
0.49
0.44
0.66
1.08
1.53
1.79
1.70
1.26
0.59
-0.13
-0.72
-1.08
-1.19
-1.09
-0.86
-0.61
-0.44
-0.45
-0.63
-0.93
-1.20
-1.35
-1.34
-1.22
-1.08
-1.00
-0.99
-1.00
-0.99
-0.95
-0.87
-0.79
-0.69
-0.53
-0.28
0.11
0.61
1.17
1.68
2.03
2.14
1.98
1.58
1.06
0.58
0.28
0.18
0.25
0.37
0.44
0.41
0.27
0.09
-0.09
-0.21
-0.29
-0.33
-0.37
-0.41
-0.44
-0.46
-0.45
-0.43
-0.38
-0.33
-0.25
-0.16
-0.07
0.01
0.04
-0.00
-0.16
-0.44
-0.81
-1.23
-1.58
-1.80
-1.86
-1.78
-1.62
-1.40
-1.09
-0.68
-0.14
0.46
1.03
1.46
1.71
1.80
1.78
1.68
1.53
1.31
1.06
0.82
0.67
0.66
0.75
0.86
0.91
0.85
0.72
0.61
0.58
0.63
0.69
0.65
0.45
0.10
-0.31
-0.63
-0.77
-0.71
-0.56
-0.40
-0.32
-0.29
-0.27
-0.21
-0.12
-0.10
-0.25
-0.61
-1.13
-1.67
-2.11
-2.37
-2.43
-2.33
-2.09
-1.69
-1.13
-0.39
0.43
1.18
1.70
1.86
1.69
1.31
0.89
0.60
0.48
0.52
0.63
0.78
0.94
1.13
1.34
1.52
1.61
1.51
1.21
0.77
0.30
-0.08
-0.28
-0.33
-0.27
-0.20
-0.19
-0.23
-0.32
-0.40
-0.47
-0.53
-0.62
-0.76
-0.94
-1.12
-1.27
-1.37
-1.44
-1.54
-1.67
-1.83
-1.94
-1.95
-1.80
-1.51
-1.11
-0.65
-0.16
0.34
0.84
1.31
1.67
1.84
1.76
1.45
1.01
0.58
0.28
0.20
0.31
0.53
0.74
0.88
0.94
0.96
0.99
1.01
0.93
0.65
0.13
-0.54
-1.18
-1.58
-1.63
-1.35
-0.88
-0.46
-0.22
-0.21
-0.40
-0.68
-1.00
-1.34
-1.67
-1.97
-2.20
-2.28
-2.15
-1.79
-1.25
-0.61
0.04
0.58
0.96
1.17
1.24
1.26
1.29
1.37
1.48
1.53
1.45
1.19
0.82
0.48
0.31
0.38
0.68
1.06
1.32
1.33
1.02
0.47
-0.17
-0.72
-1.04
-1.07
-0.84
-0.42
0.05
0.46
0.68
0.66
0.42
0.04
-0.34
-0.60
-0.70
-0.70
-0.70
-0.82
-1.10
-1.46
-1.76
-1.88
-1.76
-1.46
-1.12
-0.81
-0.57
-0.31
0.05
0.55
1.10
1.59
1.87
1.91
1.76
1.55
1.39
1.31
1.27
1.20
1.06
0.86
0.67
0.53
0.49
0.54
0.69
0.88
1.09
1.23
1.23
1.02
0.61
0.08
-0.43
-0.79
-0.94
-0.91
-0.81
-0.73
-0.71
-0.75
-0.79
-0.79
-0.75
-0.71
-0.67
-0.65
-0.60
-0.51
-0.39
-0.29
-0.27
-0.33
-0.42
-0.45
-0.31
0.02
0.45
0.88
1.15
1.22
1.15
1.02
0.93
0.87
0.78
0.61
0.35
0.08
-0.09
-0.13
-0.09
-0.10
-0.25
-0.54
-0.84
-0.97
-0.82
-0.45
-0.04
0.20
0.16
-0.11
-0.46
-0.70
-0.77
-0.73
-0.70
-0.76
-0.90
-1.03
-1.07
-1.02
-0.95
-0.96
-1.09
-1.27
-1.34
-1.18
-0.77
-0.20
0.39
0.86
1.15
1.24
1.19
1.03
0.80
0.54
0.30
0.14
0.13
0.29
0.56
0.84
1.03
1.02
0.77
0.35
-0.11
-0.49
-0.67
-0.64
-0.44
-0.20
-0.01
0.04
-0.07
-0.31
-0.59
-0.83
-0.94
-0.91
-0.78
-0.65
-0.63
-0.80
-1.13
-1.54
-1.86
-1.97
-1.82
-1.44
-0.93
-0.36
0.21
0.75
1.28
1.75
2.12
2.33
2.33
2.13
1.80
1.43
1.12
0.94
0.88
0.92
0.99
1.06
1.08
1.04
0.92
0.74
0.51
0.26
0.05
-0.08
-0.11
-0.08
-0.04
-0.05
-0.16
-0.33
-0.54
-0.74
-0.89
-1.01
-1.11
-1.20
-1.27
-1.29
-1.27
-1.17
-0.99
-0.74
-0.44
-0.12
0.17
0.45
0.71
0.99
1.27
1.53
1.68
1.67
1.47
1.09
0.65
0.26
0.01
-0.06
0.02
0.19
0.40
0.64
0.87
1.05
1.12
1.02
0.75
0.36
-0.04
-0.34
-0.47
-0.44
-0.32
-0.18
-0.10
-0.09
-0.15
-0.26
-0.46
-0.73
-1.08
-1.42
-1.66
-1.72
-1.57
-1.26
-0.88
-0.53
-0.27
-0.08
0.09
0.28
0.52
0.79
1.04
1.22
1.31
1.31
1.22
1.10
1.00
0.94
0.93
0.92
0.86
0.69
0.39
-0.01
-0.45
-0.85
-1.14
-1.26
-1.19
-0.97
-0.66
-0.36
-0.14
-0.02
0.02
0.03
0.06
0.10
0.09
-0.04
-0.33
-0.76
-1.26
-1.69
-1.96
-1.96
-1.67
-1.13
-0.47
0.15
0.57
0.71
0.66
0.57
0.62
0.89
1.30
1.67
1.81
1.63
1.22
0.77
0.46
0.34
0.33
0.29
0.16
-0.02
-0.13
-0.04
0.25
0.63
0.91
0.95
0.72
0.33
-0.05
-0.29
-0.34
-0.25
-0.14
-0.13
-0.24
-0.43
-0.57
-0.59
-0.49
-0.36
-0.33
-0.51
-0.87
-1.29
-1.60
-1.65
-1.39
-0.88
-0.25
0.33
0.74
0.96
1.01
0.99
0.96
0.96
0.95
0.88
0.70
0.43
0.15
-0.03
-0.01
0.22
0.62
1.04
1.33
1.34
1.08
0.63
0.15
-0.17
-0.24
-0.10
0.10
0.20
0.09
-0.17
-0.44
-0.58
-0.56
-0.44
-0.37
-0.47
-0.72
-1.02
-1.24
-1.32
-1.31
-1.32
-1.44
-1.64
-1.78
-1.71
-1.35
-0.76
-0.10
0.45
0.78
0.89
0.86
0.77
0.67
0.52
0.32
0.09
-0.09
